timestamp,mean_pulse_rate,pulse_rate_std,mean_pulse_amplitude,pulse_amplitude_std,block
1623676765.75,0,0,92.50042260563036,0.0,1.0
1623676766.21875,0,0,0.0,0.0,1.0
1623676766.6875,0,0,107.9227252843649,0.0,1.0
1623676767.15625,0,0,0.0,0.0,1.0
1623676767.625,0,0,0.0,0.0,1.0
1623676768.09375,0,0,71.57652970604676,0.0,1.0
1623676768.5625,0,0,0.0,0.0,1.0
1623676769.03125,0,0,24.66327515855418,0.0,1.0
1623676769.5,0,0,4.70500834631051,0.0,1.0
1623676769.96875,0,0,7.167817214098815,0.0,1.0
1623676770.4375,0,0,14.010038124853159,0.0,1.0
1623676770.90625,0,0,6.628310459347112,0.0,1.0
1623676771.375,0,0,15.285107876983137,0.0,1.0
1623676771.84375,0,0,17.115639408634138,0.0,1.0
1623676772.3125,0,0,0.0,0.0,1.0
1623676772.78125,0,0,-16.611773321801103,0.0,1.0
1623676773.25,0,0,163.67258855411316,0.0,1.0
1623676773.71875,0,0,0.0,0.0,1.0
1623676774.1875,0,0,0.0,0.0,1.0
1623676774.65625,0,0,55.854467476812346,0.0,1.0
1623676775.125,0,0,0.0,0.0,1.0
1623676775.59375,0,0,299.6195671345086,0.0,1.0
1623676776.0625,0,0,-75.86960125756752,0.0,1.0
1623676776.53125,0,0,0.0,0.0,1.0
1623676777.0,0,0,59.890684154506594,0.0,1.0
1623676777.46875,0,0,16.331507026201123,0.0,1.0
1623676777.9375,0,0,29.05225581199111,0.0,1.0
1623676778.40625,0,0,-22.56691242545915,0.0,1.0
1623676778.875,0,0,35.429782691403496,0.0,1.0
1623676779.34375,0,0,49.37042788757391,0.0,1.0
1623676779.8125,0,0,261.8610318140393,0.0,1.0
1623676780.28125,0,0,0.0,0.0,1.0
1623676780.75,0,0,358.741642710116,0.0,1.0
1623676781.21875,0,0,0.0,0.0,1.0
1623676781.6875,0,0,-22.917618737203973,0.0,1.0
1623676782.15625,0,0,72.03517777316145,0.0,1.0
1623676782.625,0,0,73.5872910828483,0.0,1.0
1623676783.09375,0,0,51.891966269115535,0.0,1.0
1623676783.5625,0,0,20.54231704163783,0.0,1.0
1623676784.03125,0,0,15.872308921259668,0.0,1.0
1623676784.5,0,0,4.937109880509504,0.0,1.0
1623676784.96875,0,0,20.564905480634785,0.0,1.0
1623676785.4375,0,0,0.0,0.0,1.0
1623676785.90625,0,0,0.0,0.0,1.0
1623676786.375,0,0,-13.679511383223584,0.0,1.0
1623676786.84375,0,0,149.80737808069807,0.0,1.0
1623676787.3125,0,0,0.0,0.0,1.0
1623676787.78125,0,0,65.1173977583066,0.0,1.0
1623676788.25,0,0,0.0,0.0,1.0
1623676788.71875,0,0,181.4116600273967,0.0,1.0
1623676789.1875,0,0,30.52295501964955,0.0,1.0
1623676789.65625,0,0,0.0,0.0,1.0
1623676790.125,0,0,108.85089960592371,0.0,1.0
1623676790.59375,0,0,34.5638615630662,0.0,1.0
1623676791.0625,0,0,22.604709083090892,0.0,1.0
1623676791.53125,0,0,4.3923094470442585,0.0,1.0
1623676792.0,0,0,6.352638070464065,0.0,1.0
1623676792.46875,0,0,20.011717213100525,0.0,1.0
1623676792.9375,0,0,13.510897067835437,0.0,1.0
1623676793.40625,0,0,10.26374412594673,0.0,1.0
1623676793.875,0,0,32.276308254556874,0.0,1.0
1623676794.34375,0,0,22.053235464860187,0.0,1.0
1623676794.8125,0,0,72.39547307938477,0.0,1.0
1623676795.28125,0,0,169.66867086525286,0.0,1.0
1623676795.75,0,0,0.0,0.0,1.0
1623676796.21875,0,0,39.90027606410319,0.0,1.0
1623676796.6875,0,0,-9.883150299399377,0.0,1.0
1623676797.15625,0,0,29.006889621507003,0.0,1.0
1623676797.625,0,0,-10.1453753028934,0.0,1.0
1623676798.09375,0,0,93.05689170556546,0.0,1.0
1623676798.5625,0,0,-43.30626305391213,0.0,1.0
1623676799.03125,0,0,0.0,0.0,1.0
1623676799.5,0,0,46.60071272255804,0.0,1.0
1623676799.96875,0,0,0.0,0.0,1.0
1623676800.4375,0,0,76.2862813399002,0.0,1.0
1623676800.90625,0,0,33.6872595744757,0.0,1.0
1623676801.375,0,0,15.237099927533652,0.0,1.0
1623676801.84375,0,0,-1.096670682155735,0.0,1.0
1623676802.3125,0,0,96.77187779087733,0.0,1.0
1623676802.78125,0,0,0.0,0.0,1.0
1623676803.25,0,0,0.0,0.0,1.0
1623676803.71875,0,0,9.314330938936122,0.0,1.0
1623676804.1875,0,0,49.86184766989108,0.0,1.0
1623676804.65625,0,0,-33.96961964497316,0.0,1.0
1623676805.125,0,0,19.277900803461705,0.0,1.0
1623676805.59375,0,0,12.958391105454108,0.0,1.0
1623676806.0625,0,0,37.49804045606145,0.0,1.0
1623676806.53125,0,0,34.59627633848019,0.0,1.0
1623676807.0,0,0,23.709013839401436,0.0,1.0
1623676807.46875,0,0,4.940294070740803,0.0,1.0
1623676807.9375,0,0,0.0,0.0,1.0
1623676808.40625,0,0,53.85860212879601,0.0,1.0
1623676808.875,0,0,22.054533619168595,0.0,1.0
1623676809.34375,0,0,9.304909254646574,0.0,1.0
1623676809.8125,0,0,8.381961352417449,0.0,1.0
1623676810.28125,0,0,82.21481168096288,0.0,1.0
1623676810.75,0,0,-1.734945344238056,0.0,1.0
1623676811.21875,0,0,25.173704724946152,0.0,1.0
1623676811.6875,0,0,4.6198350192462865,0.0,1.0
1623676812.15625,0,0,36.23739408465609,0.0,1.0
1623676812.625,0,0,36.21447707038078,0.0,1.0
1623676813.09375,0,0,12.085533446087938,0.0,1.0
1623676813.5625,0,0,20.866844809936673,0.0,1.0
1623676814.03125,0,0,16.951043603196375,0.0,1.0
1623676814.5,0,0,28.56334609258365,0.0,1.0
1623676814.96875,0,0,4.97180549344074,0.0,1.0
1623676815.4375,0,0,9.764040346197929,0.0,1.0
1623676815.90625,0,0,3.183123424468321,0.0,1.0
1623676816.375,0,0,65.58784291333086,0.0,1.0
1623676816.84375,0,0,0.0,0.0,1.0
1623676817.3125,0,0,15.327530107061373,0.0,1.0
1623676817.78125,0,0,8.742774703282668,0.0,1.0
1623676818.25,0,0,40.439261432801366,0.0,1.0
1623676818.71875,0,0,34.120012651983295,0.0,1.0
1623676819.1875,0,0,8.615196778172303,0.0,1.0
1623676819.65625,0,0,9.905927580203638,0.0,1.0
1623676820.125,0,0,33.47323616220933,0.0,1.0
1623676820.59375,0,0,21.41828604339055,0.0,1.0
1623676821.0625,0,0,14.41286430965916,0.0,1.0
1623676821.53125,0,0,0.5394272568810031,0.0,1.0
1623676822.0,0,0,0.0,0.0,1.0
1623676822.46875,0,0,-3.982722700380882,0.0,1.0
1623676822.9375,0,0,13.624733117782098,0.0,1.0
1623676823.40625,0,0,4.189608031129465,0.0,1.0
1623676823.875,0,0,23.763458473706528,0.0,1.0
1623676824.34375,0,0,72.5759773002396,0.0,1.0
1623676824.8125,0,0,1.5769856036980783,0.0,1.0
1623676825.28125,0,0,15.846576034012683,0.0,1.0
1623676825.75,0,0,0.0,0.0,1.0
1623676826.21875,0,0,22.995005856821983,0.0,1.0
1623676826.6875,0,0,15.590573461098433,0.0,1.0
1623676827.15625,0,0,9.316806571975711,0.0,1.0
1623676827.625,0,0,0.0,0.0,1.0
1623676828.09375,0,0,47.69638291287496,0.0,1.0
1623676828.5625,0,0,7.754361334883141,0.0,1.0
1623676829.03125,0,0,0.0,0.0,1.0
1623676829.5,0,0,8.5547327432481,0.0,1.0
1623676829.96875,0,0,44.583622674857274,0.0,1.0
1623676830.4375,0,0,13.48409284928317,0.0,1.0
1623676830.90625,0,0,18.87577451574632,0.0,1.0
1623676831.375,0,0,9.58263595916996,0.0,1.0
1623676831.84375,0,0,15.210778615992208,0.0,1.0
1623676832.3125,0,0,56.69138765597435,0.0,1.0
1623676832.78125,0,0,18.44131496441395,0.0,1.0
1623676833.25,0,0,12.55256389785734,0.0,1.0
1623676833.71875,0,0,22.004196817945257,0.0,1.0
1623676834.1875,0,0,40.8171141752007,0.0,1.0
1623676834.65625,0,0,15.656879359340891,0.0,1.0
1623676835.125,0,0,11.546493113236668,0.0,1.0
1623676835.59375,0,0,0.0,0.0,1.0
1623676836.0625,0,0,37.70673119117341,0.0,1.0
1623676836.53125,0,0,3.771379058001512,0.0,1.0
1623676837.0,0,0,15.152697947948054,0.0,1.0
1623676837.46875,0,0,9.758003340891412,0.0,1.0
1623676837.9375,0,0,54.13407460417226,0.0,1.0
1623676838.40625,0,0,11.086145990566749,0.0,1.0
1623676838.875,0,0,22.257863071727932,0.0,1.0
1623676839.34375,0,0,25.06544909949514,0.0,1.0
1623676839.8125,0,0,6.925518770578748,0.0,1.0
1623676840.28125,0,0,-4.197958478876772,0.0,1.0
1623676840.75,0,0,13.428272908127363,0.0,1.0
1623676841.21875,0,0,15.962154640237694,0.0,1.0
1623676841.6875,0,0,20.94841086028756,0.0,1.0
1623676842.15625,0,0,8.945002130478612,0.0,1.0
1623676842.625,0,0,22.597830681377232,0.0,1.0
1623676843.09375,0,0,4.592106360215362,0.0,1.0
1623676843.5625,0,0,13.929016473319125,0.0,1.0
1623676844.03125,0,0,14.70251770552702,0.0,1.0
1623676844.5,0,0,6.601158627066701,0.0,1.0
1623676844.96875,0,0,11.740775024888437,0.0,1.0
1623676845.4375,0,0,8.193395903340807,0.0,1.0
1623676845.90625,0,0,0.0,0.0,1.0
1623676846.375,0,0,0.0,0.0,1.0
1623676846.84375,0,0,0.0,0.0,1.0
1623676847.3125,0,0,11.160169040816209,0.0,1.0
1623676847.78125,0,0,11.358998691151912,0.0,1.0
1623676848.25,0,0,14.300877847364202,0.0,1.0
1623676848.71875,0,0,12.024595687022485,0.0,1.0
1623676849.1875,0,0,8.983899192228359,0.0,1.0
1623676849.65625,0,0,12.38036073674332,0.0,1.0
1623676850.125,0,0,17.41506540216626,0.0,1.0
1623676850.59375,0,0,0.0,0.0,1.0
1623676851.0625,0,0,0.0,0.0,1.0
1623676851.53125,0,0,23.644895920367205,0.0,1.0
1623676852.0,0,0,70.23155297943117,0.0,1.0
1623676852.46875,0,0,117.82885702779613,0.0,1.0
1623676852.9375,0,0,27.020798649243385,0.0,1.0
1623676853.40625,0,0,50.94525284584596,0.0,1.0
1623676853.875,0,0,5.3206588142027105,0.0,1.0
1623676854.34375,0,0,30.656325448658585,0.0,1.0
1623676854.8125,0,0,0.0,0.0,1.0
1623676855.28125,0,0,68.27237664490923,0.0,1.0
1623676855.75,0,0,18.132814397419587,0.0,1.0
1623676856.21875,0,0,0.0,0.0,1.0
1623676856.6875,0,0,59.58617335814692,0.0,1.0
1623676857.15625,0,0,0.0,0.0,1.0
1623676857.625,0,0,14.359017463935135,0.0,1.0
1623676858.09375,0,0,13.834844505056282,0.0,1.0
1623676858.5625,0,0,54.16283739951828,0.0,1.0
1623676859.03125,0,0,-5.4995557329772495,0.0,1.0
1623676859.5,0,0,14.639581539537696,0.0,1.0
1623676859.96875,0,0,13.40418561958769,0.0,1.0
1623676860.4375,0,0,0.0,0.0,1.0
1623676860.90625,0,0,31.59641620045623,0.0,1.0
1623676861.375,0,0,23.89550075554602,0.0,1.0
1623676861.84375,0,0,4.158063127903739,0.0,1.0
1623676862.3125,0,0,-11.174343370642918,0.0,1.0
1623676862.78125,0,0,63.42503519653078,0.0,1.0
1623676863.25,0,0,20.095798364918146,0.0,1.0
1623676863.71875,0,0,17.590653854237,0.0,1.0
1623676864.1875,0,0,4.910133110392482,0.0,1.0
1623676864.65625,0,0,0.0,0.0,1.0
1623676865.125,0,0,36.411900885140824,0.0,1.0
1623676865.59375,0,0,0.18612638164276446,0.0,1.0
1623676866.0625,0,0,10.46669102509569,0.0,1.0
1623676866.53125,0,0,19.155593376272567,0.0,1.0
1623676867.0,0,0,35.7053916008138,0.0,1.0
1623676867.46875,0,0,21.618112915208393,0.0,1.0
1623676867.9375,0,0,7.360576657119529,0.0,1.0
1623676868.40625,0,0,0.0,0.0,1.0
1623676868.875,0,0,27.067703812245494,0.0,1.0
1623676869.34375,0,0,12.96806279669542,0.0,1.0
1623676869.8125,0,0,0.0,0.0,1.0
1623676870.28125,0,0,-22.739744507867286,0.0,1.0
1623676870.75,0,0,82.1412170501921,0.0,1.0
1623676871.21875,0,0,-32.45848580370899,0.0,1.0
1623676871.6875,0,0,23.432783599147395,0.0,1.0
1623676872.15625,0,0,5.006687989250868,0.0,1.0
1623676872.625,0,0,35.04757285938223,0.0,1.0
1623676873.09375,0,0,51.03147382123815,0.0,1.0
1623676873.5625,0,0,23.54570421219653,0.0,1.0
1623676874.03125,0,0,17.040421051207712,0.0,1.0
1623676874.5,0,0,21.538687566135533,0.0,1.0
1623676874.96875,0,0,12.764484885526166,0.0,1.0
1623676875.4375,0,0,80.43972332345334,0.0,1.0
1623676875.90625,0,0,12.036833845759801,0.0,1.0
1623676876.375,0,0,15.060997343469904,0.0,1.0
1623676876.84375,0,0,0.0,0.0,1.0
1623676877.3125,0,0,15.340833910010586,0.0,1.0
1623676877.78125,0,0,0.0,0.0,1.0
1623676878.25,0,0,7.720820299054603,0.0,1.0
1623676878.71875,0,0,36.78922331817603,0.0,1.0
1623676879.1875,0,0,0.0,0.0,1.0
1623676879.65625,0,0,11.295701237444984,0.0,1.0
1623676880.125,0,0,14.736301129666904,0.0,1.0
1623676880.59375,0,0,76.35561614890953,0.0,1.0
1623676881.0625,0,0,0.0,0.0,1.0
1623676881.53125,0,0,4.507365877039898,0.0,1.0
1623676882.0,0,0,22.639828992835877,0.0,1.0
1623676882.46875,0,0,22.29344072454857,0.0,1.0
1623676882.9375,0,0,17.68565882843528,0.0,1.0
1623676883.40625,0,0,22.329418008505925,0.0,1.0
1623676883.875,0,0,15.650668679717322,0.0,1.0
1623676884.34375,0,0,0.7099153989691613,0.0,1.0
1623676884.8125,0,0,85.05103396029826,0.0,1.0
1623676885.28125,0,0,19.483105849519504,0.0,1.0
1623676885.75,0,0,30.83438850948391,0.0,1.0
1623676886.21875,0,0,18.933028764495067,0.0,1.0
1623676886.6875,0,0,0.0,0.0,1.0
1623676887.15625,0,0,0.0,0.0,1.0
1623676887.625,0,0,0.0,0.0,1.0
1623676888.09375,0,0,13.190621843259525,0.0,1.0
1623676888.5625,0,0,1.1754585435793392,0.0,1.0
1623676889.03125,0,0,67.6751015944504,0.0,1.0
1623676889.5,0,0,0.26788242411247826,0.0,1.0
1623676889.96875,0,0,30.527659716925342,0.0,1.0
1623676890.4375,0,0,5.423231042155988,0.0,1.0
1623676890.90625,0,0,60.83848212175591,0.0,1.0
1623676891.375,0,0,-24.977306696069228,0.0,1.0
1623676891.84375,0,0,27.368265715135134,0.0,1.0
1623676892.3125,0,0,25.644254633430062,0.0,1.0
1623676892.78125,0,0,52.92163044758313,0.0,1.0
1623676893.25,0,0,0.0,0.0,1.0
1623676893.71875,0,0,27.877485175744724,0.0,1.0
1623676894.1875,0,0,6.45250497661873,0.0,1.0
1623676894.65625,0,0,98.48221678067887,0.0,1.0
1623676895.125,0,0,-41.751314474598004,0.0,1.0
1623676895.59375,0,0,35.08066562944142,0.0,1.0
1623676896.0625,0,0,0.0,0.0,1.0
1623676896.53125,0,0,0.0,0.0,1.0
1623676897.0,0,0,81.27089326169857,0.0,1.0
1623676897.46875,0,0,33.378532201473426,0.0,1.0
1623676897.9375,0,0,15.38193900992567,0.0,1.0
1623676898.40625,0,0,17.61829150161338,0.0,1.0
1623676898.875,0,0,3.093464688404968,0.0,1.0
1623676899.34375,0,0,15.245274645697117,0.0,1.0
1623676899.8125,0,0,32.766410728341036,0.0,1.0
1623676900.28125,0,0,0.0,0.0,1.0
1623676900.75,0,0,12.012359855676689,0.0,1.0
1623676901.21875,0,0,14.545847094866396,0.0,1.0
1623676901.6875,0,0,18.06589375418055,0.0,1.0
1623676902.15625,0,0,14.767402573181046,0.0,1.0
1623676902.625,0,0,11.90991379684112,0.0,1.0
1623676903.09375,0,0,6.602738858115201,0.0,1.0
1623676903.5625,0,0,20.050744748012686,0.0,1.0
1623676904.03125,0,0,48.225163688668474,0.0,1.0
1623676904.5,0,0,0.0,0.0,1.0
1623676904.96875,0,0,87.10686697991086,0.0,1.0
1623676905.4375,0,0,-84.87815665667291,0.0,1.0
1623676905.90625,0,0,0.0,0.0,1.0
1623676906.375,0,0,123.56448402651577,0.0,1.0
1623676906.84375,0,0,126.63720315319084,0.0,1.0
1623676907.3125,0,0,0.0,0.0,1.0
1623676907.78125,0,0,133.78020109384815,0.0,1.0
1623676908.25,0,0,45.99561403919585,0.0,1.0
1623676908.71875,0,0,0.0,0.0,1.0
1623676909.1875,0,0,32.204645284380945,0.0,1.0
1623676909.65625,0,0,10.69748190830426,0.0,1.0
1623676910.125,0,0,0.0,0.0,1.0
1623676910.59375,0,0,15.939225619093042,0.0,1.0
1623676911.0625,0,0,22.039724148975683,0.0,1.0
1623676911.53125,0,0,17.47292575429656,0.0,1.0
1623676912.0,0,0,15.892330718172065,0.0,1.0
1623676912.46875,0,0,20.16396107162293,0.0,1.0
1623676912.9375,0,0,2.884119112896368,0.0,1.0
1623676913.40625,0,0,-8.865339735937551,0.0,1.0
1623676913.875,0,0,46.94795680517312,0.0,1.0
1623676914.34375,0,0,14.83842471343489,0.0,1.0
1623676914.8125,0,0,16.5848470786218,0.0,1.0
1623676915.28125,0,0,24.340813235178747,0.0,1.0
1623676915.75,0,0,47.57793934923966,0.0,1.0
1623676916.21875,0,0,3.6071440110027315,0.0,1.0
1623676916.6875,0,0,12.861993839048715,0.0,1.0
1623676917.15625,0,0,0.0,0.0,1.0
1623676917.625,0,0,47.262040968393435,0.0,1.0
1623676918.09375,0,0,-6.525734702917371,0.0,1.0
1623676918.5625,0,0,17.158754105803638,0.0,1.0
1623676919.03125,0,0,8.521711315402596,0.0,1.0
1623676919.5,0,0,0.0,0.0,1.0
1623676919.96875,0,0,84.65790212021119,0.0,1.0
1623676920.4375,0,0,0.0,0.0,1.0
1623676920.90625,0,0,0.0,0.0,1.0
1623676921.375,0,0,-5.0357297433293144,0.0,1.0
1623676921.84375,0,0,117.16655975949662,0.0,1.0
1623676922.3125,0,0,0.0,0.0,1.0
1623676922.78125,0,0,42.8897398617217,0.0,1.0
1623676923.25,0,0,0.0,0.0,1.0
1623676923.71875,0,0,73.29807789319312,0.0,1.0
1623676924.1875,0,0,0.0,0.0,1.0
1623676924.65625,0,0,29.156631642617242,0.0,1.0
1623676925.125,0,0,37.09442303616756,0.0,1.0
1623676925.59375,0,0,103.64117408375354,0.0,1.0
1623676926.0625,0,0,-12.094077556820206,0.0,1.0
1623676926.53125,0,0,0.0,0.0,1.0
1623676927.0,0,0,115.71620663526043,0.0,1.0
1623676927.46875,0,0,30.580972477749413,0.0,1.0
1623676927.9375,0,0,0.0,0.0,1.0
1623676928.40625,0,0,30.70305572944964,0.0,1.0
1623676928.875,0,0,25.993959969426623,0.0,1.0
1623676929.34375,0,0,-3.5083329082398484,0.0,1.0
1623676929.8125,0,0,122.99631049410809,0.0,1.0
1623676930.28125,0,0,0.0,0.0,1.0
1623676930.75,0,0,27.51025588003588,0.0,1.0
1623676931.21875,0,0,0.0,0.0,1.0
1623676931.6875,0,0,100.61080182626431,0.0,1.0
1623676932.15625,0,0,-16.930430753072898,0.0,1.0
1623676932.625,0,0,0.0,0.0,1.0
1623676933.09375,0,0,-4.20012685644346,0.0,1.0
1623676933.5625,0,0,140.7794918211781,0.0,1.0
1623676934.03125,0,0,0.0,0.0,1.0
1623676934.5,0,0,38.09490809561214,0.0,1.0
1623676934.96875,0,0,-4.531655086259768,0.0,1.0
1623676935.4375,0,0,0.0,0.0,1.0
1623676935.90625,0,0,135.91524998539205,0.0,1.0
1623676936.375,0,0,33.02512051481024,0.0,1.0
1623676936.84375,0,0,9.614671820635902,0.0,1.0
1623676937.3125,0,0,0.0,0.0,1.0
1623676937.78125,0,0,238.78895893157926,0.0,1.0
1623676938.25,0,0,0.0,0.0,1.0
1623676938.71875,0,0,79.05956791948465,0.0,1.0
1623676939.1875,0,0,0.0,0.0,1.0
1623676939.65625,0,0,0.0,0.0,1.0
1623676940.125,0,0,300.3446113135992,0.0,1.0
1623676940.59375,0,0,0.0,0.0,1.0
1623676941.0625,0,0,126.86443534067762,0.0,1.0
1623676941.53125,0,0,206.31079571627535,0.0,1.0
1623676942.0,0,0,0.0,0.0,1.0
1623676942.46875,0,0,79.18133979295773,0.0,1.0
1623676942.9375,0,0,0.0,0.0,1.0
1623676943.40625,0,0,0.0,0.0,1.0
1623676943.875,0,0,153.00969152475253,0.0,1.0
1623676944.34375,0,0,0.0,0.0,1.0
1623676944.8125,0,0,43.35608861990349,0.0,1.0
1623676945.28125,0,0,0.0,0.0,1.0
1623676945.75,0,0,151.661041408876,0.0,1.0
1623676946.21875,0,0,0.0,0.0,1.0
1623676946.6875,0,0,66.16039403954319,0.0,1.0
1623676947.15625,0,0,0.0,0.0,1.0
1623676947.625,0,0,116.77194373100546,0.0,1.0
1623676948.09375,0,0,0.0,0.0,1.0
1623676948.5625,0,0,41.71590497315156,0.0,1.0
1623676949.03125,0,0,11.019329119110587,0.0,1.0
1623676949.5,0,0,90.81360944677661,0.0,1.0
1623676949.96875,0,0,0.0,0.0,1.0
1623676950.4375,0,0,53.155944987884006,0.0,1.0
1623676950.90625,0,0,-3.195510680175729,0.0,1.0
1623676951.375,0,0,0.0,0.0,1.0
1623676951.84375,0,0,197.1756034877471,0.0,1.0
1623676952.3125,0,0,0.0,0.0,1.0
1623676952.78125,0,0,53.13990246307831,0.0,1.0
1623676953.25,0,0,-12.404587140121581,0.0,1.0
1623676953.71875,0,0,145.61653521686486,0.0,1.0
1623676954.1875,0,0,0.0,0.0,1.0
1623676954.65625,0,0,53.37799169763254,0.0,1.0
1623676955.125,0,0,0.0,0.0,1.0
1623676955.59375,0,0,0.0,0.0,1.0
1623676956.0625,0,0,126.81722032221116,0.0,1.0
1623676956.53125,0,0,0.0,0.0,1.0
1623676957.0,0,0,32.87686793225979,0.0,1.0
1623676957.46875,0,0,-5.401142304839057,0.0,1.0
1623676957.9375,0,0,-16.326423222817667,0.0,1.0
1623676958.40625,0,0,7.2214802984706195,0.0,1.0
1623676958.875,0,0,16.34996161790957,0.0,1.0
1623676959.34375,0,0,12.682858280706206,0.0,1.0
1623676959.8125,0,0,-12.648127932307636,0.0,1.0
1623676960.28125,0,0,0.0,0.0,1.0
1623676960.75,0,0,252.0879788281493,0.0,1.0
1623676961.21875,0,0,0.0,0.0,1.0
1623676961.6875,0,0,153.311273134151,0.0,1.0
1623676962.15625,0,0,181.50988503875374,0.0,1.0
1623676962.625,0,0,5.816177163354858,0.0,1.0
1623676963.09375,0,0,40.32794291040096,0.0,1.0
1623676963.5625,0,0,0.0,0.0,1.0
1623676964.03125,0,0,44.15255923131607,0.0,1.0
1623676964.5,0,0,7.571837248146195,0.0,1.0
1623676964.96875,0,0,6.408787903975173,0.0,1.0
1623676965.4375,0,0,2.8224900975024845,0.0,1.0
1623676965.90625,0,0,10.463969150220374,0.0,1.0
1623676966.375,0,0,22.383063856762732,0.0,1.0
1623676966.84375,0,0,7.622979630237335,0.0,1.0
1623676967.3125,0,0,-17.63574937607196,0.0,1.0
1623676967.78125,0,0,0.0,0.0,1.0
1623676968.25,0,0,248.7091158413914,0.0,1.0
1623676968.71875,0,0,-30.883850029827734,0.0,1.0
1623676969.1875,0,0,0.0,0.0,1.0
1623676969.65625,0,0,123.81760975574953,0.0,1.0
1623676970.125,0,0,225.7492667082708,0.0,1.0
1623676970.59375,0,0,0.0,0.0,1.0
1623676971.0625,0,0,163.04607749831632,0.0,1.0
1623676971.53125,0,0,0.0,0.0,1.0
1623676972.0,0,0,0.0,0.0,1.0
1623676972.46875,0,0,-34.94573549424225,0.0,1.0
1623676972.9375,0,0,83.16864270566766,0.0,1.0
1623676973.40625,0,0,211.74661758489268,0.0,1.0
1623676973.875,0,0,0.0,0.0,1.0
1623676974.34375,0,0,40.17015629391341,0.0,1.0
1623676974.8125,0,0,136.28816168252447,0.0,1.0
1623676975.28125,0,0,0.0,0.0,1.0
1623676975.75,0,0,64.24391780619327,0.0,1.0
1623676976.21875,0,0,-7.870141547523339,0.0,1.0
1623676976.6875,0,0,140.54902231435628,0.0,1.0
1623676977.15625,0,0,0.0,0.0,1.0
1623676977.625,0,0,29.074648222130918,0.0,1.0
1623676978.09375,0,0,14.150407449166835,0.0,1.0
1623676978.5625,0,0,0.0,0.0,1.0
1623676979.03125,0,0,87.01666093441081,0.0,1.0
1623676979.5,0,0,17.892097600501664,0.0,1.0
1623676979.96875,0,0,-1.5615167526856155,0.0,1.0
1623676980.4375,0,0,0.0,0.0,1.0
1623676980.90625,0,0,161.44987313713142,0.0,1.0
1623676981.375,0,0,28.759842784051713,0.0,1.0
1623676981.84375,0,0,39.057746248838875,0.0,1.0
1623676982.3125,0,0,0.0,0.0,1.0
1623676982.78125,0,0,101.81601925696407,0.0,1.0
1623676983.25,0,0,0.0,0.0,1.0
1623676983.71875,0,0,4.273718451032049,0.0,1.0
1623676984.1875,0,0,0.0,0.0,1.0
1623676984.65625,0,0,143.80382304590202,0.0,1.0
1623676985.125,0,0,0.0,0.0,1.0
1623676985.59375,0,0,24.381026956975838,0.0,1.0
1623676986.0625,0,0,0.0,0.0,1.0
1623676986.53125,0,0,205.8671106348659,0.0,1.0
1623676987.0,0,0,0.0,0.0,1.0
1623676987.46875,0,0,57.76207938679254,0.0,1.0
1623676987.9375,0,0,0.0,0.0,1.0
1623676988.40625,0,0,0.0,0.0,1.0
1623676988.875,0,0,222.02565269941616,0.0,1.0
1623676989.34375,0,0,65.31271112534023,0.0,1.0
1623676989.8125,0,0,0.0,0.0,1.0
1623676990.28125,0,0,0.0,0.0,1.0
1623676990.75,0,0,158.29523991879873,0.0,1.0
1623676991.21875,0,0,0.0,0.0,1.0
1623676991.6875,0,0,48.129138143724894,0.0,1.0
1623676992.15625,0,0,-9.87521680595609,0.0,1.0
1623676992.625,0,0,0.0,0.0,1.0
1623676993.09375,0,0,0.0,0.0,1.0
1623676993.5625,0,0,32.14727327371304,0.0,1.0
1623676994.03125,0,0,0.0,0.0,1.0
1623676994.5,0,0,127.22964011969674,0.0,1.0
1623676994.96875,0,0,0.0,0.0,1.0
1623676995.4375,0,0,43.08891407445047,0.0,1.0
1623676995.90625,0,0,-10.732581778091065,0.0,1.0
1623676996.375,0,0,0.0,0.0,1.0
1623676996.84375,0,0,131.58079701650271,0.0,1.0
1623676997.3125,0,0,0.0,0.0,1.0
1623676997.78125,0,0,48.969322879612236,0.0,1.0
1623676998.25,0,0,0.0,0.0,1.0
1623676998.71875,0,0,221.81239376096502,0.0,1.0
1623676999.1875,0,0,69.01189522851973,0.0,1.0
1623676999.65625,0,0,0.0,0.0,1.0
1623677000.125,0,0,0.0,0.0,1.0
1623677000.59375,0,0,0.0,0.0,1.0
1623677001.0625,0,0,0.0,0.0,1.0
1623677001.53125,0,0,62.51393710110901,0.0,1.0
1623677002.0,0,0,25.56366073793334,0.0,1.0
1623677002.46875,0,0,66.85367472202314,0.0,1.0
1623677002.9375,0,0,0.0,0.0,1.0
1623677003.40625,0,0,20.710586034386246,0.0,1.0
1623677003.875,0,0,0.0,0.0,1.0
1623677004.34375,0,0,0.0,0.0,1.0
1623677004.8125,0,0,107.4738476875193,0.0,1.0
1623677005.28125,0,0,33.11100100663846,0.0,1.0
1623677005.75,0,0,-15.752897864290283,0.0,1.0
1623677006.21875,0,0,-22.868294041136664,0.0,1.0
1623677006.6875,0,0,182.70302311553186,0.0,1.0
1623677007.15625,0,0,0.0,0.0,1.0
1623677007.625,0,0,79.46662279416721,0.0,1.0
1623677008.09375,0,0,0.0,0.0,1.0
1623677008.5625,0,0,153.10813660017823,0.0,1.0
1623677009.03125,0,0,0.0,0.0,1.0
1623677009.5,0,0,0.0,0.0,1.0
1623677009.96875,0,0,0.0,0.0,1.0
1623677010.4375,0,0,159.9725923354804,0.0,1.0
1623677010.90625,0,0,50.027672890347226,0.0,1.0
1623677011.375,0,0,22.1088185373615,0.0,1.0
1623677011.84375,0,0,0.0,0.0,1.0
1623677012.3125,0,0,81.13544000141316,0.0,1.0
1623677012.78125,0,0,26.37149599546255,0.0,1.0
1623677013.25,0,0,-13.277409033685986,0.0,1.0
1623677013.71875,0,0,0.0,0.0,1.0
1623677014.1875,0,0,236.85133166993225,0.0,1.0
1623677014.65625,0,0,0.0,0.0,1.0
1623677015.125,0,0,74.33569241218075,0.0,1.0
1623677015.59375,0,0,23.46753895158227,0.0,1.0
1623677016.0625,0,0,-6.907854371070096,0.0,1.0
1623677016.53125,0,0,-13.042507987653337,0.0,1.0
1623677017.0,0,0,6.924222518863356,0.0,1.0
1623677017.46875,0,0,14.229334316429943,0.0,1.0
1623677017.9375,0,0,7.268744789366109,0.0,1.0
1623677018.40625,0,0,4.49708189998639,0.0,1.0
1623677018.875,0,0,7.9756309781816705,0.0,1.0
1623677019.34375,0,0,7.738588901119118,0.0,1.0
1623677019.8125,0,0,0.0,0.0,1.0
1623677020.28125,0,0,0.0,0.0,1.0
1623677020.75,0,0,0.0,0.0,1.0
1623677021.21875,0,0,0.0,0.0,1.0
1623677021.6875,0,0,4.558079098500926,0.0,1.0
1623677022.15625,0,0,10.870089622760593,0.0,1.0
1623677022.625,0,0,8.914951587679692,0.0,1.0
1623677023.09375,0,0,6.2565790946022215,0.0,1.0
1623677023.5625,0,0,7.050273021159393,0.0,1.0
1623677024.03125,0,0,4.592531504619055,0.0,1.0
1623677024.5,0,0,7.208930681238758,0.0,1.0
1623677024.96875,0,0,3.970498951083713,0.0,1.0
1623677025.4375,0,0,2.366717281050073,0.0,1.0
1623677025.90625,0,0,10.920348316490353,0.0,1.0
1623677026.375,0,0,12.251263605334902,0.0,1.0
1623677026.84375,0,0,0.0,0.0,1.0
1623677027.3125,0,0,0.0,0.0,1.0
1623677027.78125,0,0,39.03017590957849,0.0,1.0
1623677028.25,0,0,148.14798140356868,0.0,1.0
1623677028.71875,0,0,0.0,0.0,1.0
1623677029.1875,0,0,113.86055190781487,0.0,1.0
1623677029.65625,0,0,0.0,0.0,1.0
1623677030.125,0,0,146.5168938571528,0.0,1.0
1623677030.59375,0,0,87.3356055856922,0.0,1.0
1623677031.0625,0,0,0.0,0.0,1.0
1623677031.53125,0,0,196.8542765933272,0.0,1.0
1623677032.0,0,0,0.0,0.0,1.0
1623677032.46875,0,0,44.35967888204777,0.0,1.0
1623677032.9375,0,0,0.0,0.0,1.0
1623677033.40625,0,0,148.43620388686855,0.0,1.0
1623677033.875,0,0,23.119006555414913,0.0,1.0
1623677034.34375,0,0,0.0,0.0,1.0
1623677034.8125,0,0,0.0,0.0,1.0
1623677035.28125,0,0,163.85924715036623,0.0,1.0
1623677035.75,0,0,55.320721443125876,0.0,1.0
1623677036.21875,0,0,80.27096275097094,0.0,1.0
1623677036.6875,0,0,0.0,0.0,1.0
1623677037.15625,0,0,183.07749865678997,0.0,1.0
1623677037.625,0,0,60.09888973267863,0.0,1.0
1623677038.09375,0,0,0.0,0.0,1.0
1623677038.5625,0,0,0.0,0.0,1.0
1623677039.03125,0,0,157.8631850376581,0.0,1.0
1623677039.5,0,0,0.0,0.0,1.0
1623677039.96875,0,0,69.26381539538306,0.0,1.0
1623677040.4375,0,0,-13.712772151856083,0.0,1.0
1623677040.90625,0,0,157.6572935804654,0.0,1.0
1623677041.375,0,0,0.0,0.0,1.0
1623677041.84375,0,0,56.76164985573806,0.0,1.0
1623677042.3125,0,0,0.0,0.0,1.0
1623677042.78125,0,0,0.0,0.0,1.0
1623677043.25,0,0,257.6782135300829,0.0,1.0
1623677043.71875,0,0,0.0,0.0,1.0
1623677044.1875,0,0,62.25665290537128,0.0,1.0
1623677044.65625,0,0,0.0,0.0,1.0
1623677045.125,0,0,156.64473559627095,0.0,1.0
1623677045.59375,0,0,69.72479209234098,0.0,1.0
1623677046.0625,0,0,0.0,0.0,1.0
1623677046.53125,0,0,0.0,0.0,1.0
1623677047.0,0,0,240.80326786338247,0.0,1.0
1623677047.46875,0,0,0.0,0.0,1.0
1623677047.9375,0,0,77.96240483214187,0.0,1.0
1623677048.40625,0,0,0.0,0.0,1.0
1623677048.875,0,0,129.30284271959374,0.0,1.0
1623677049.34375,0,0,0.0,0.0,1.0
1623677049.8125,0,0,39.77666914252836,0.0,1.0
1623677050.28125,0,0,14.760381301219232,0.0,1.0
1623677050.75,0,0,0.0,0.0,1.0
1623677051.21875,0,0,144.0682056719125,0.0,1.0
1623677051.6875,0,0,44.81571327905723,0.0,1.0
1623677052.15625,0,0,8.44205005936535,0.0,1.0
1623677052.625,0,0,0.0,0.0,1.0
1623677053.09375,0,0,144.1920193038999,0.0,1.0
1623677053.5625,0,0,46.41315518195594,0.0,1.0
1623677054.03125,0,0,0.0,0.0,1.0
1623677054.5,0,0,0.0,0.0,1.0
1623677054.96875,0,0,92.05870568113086,0.0,1.0
1623677055.4375,0,0,37.73208141979883,0.0,1.0
1623677055.90625,0,0,-13.237586833552955,0.0,1.0
1623677056.375,0,0,0.0,0.0,1.0
1623677056.84375,0,0,0.0,0.0,1.0
1623677057.3125,0,0,0.0,0.0,1.0
1623677057.78125,0,0,54.242433733786065,0.0,1.0
1623677058.25,0,0,34.74336902001856,0.0,1.0
1623677058.71875,0,0,0.0,0.0,1.0
1623677059.1875,0,0,181.81692505407153,0.0,1.0
1623677059.65625,0,0,0.0,0.0,1.0
1623677060.125,0,0,62.42164422670887,0.0,1.0
1623677060.59375,0,0,0.0,0.0,1.0
1623677061.0625,0,0,105.63373614747945,0.0,1.0
1623677061.53125,0,0,25.707567815247117,0.0,1.0
1623677062.0,0,0,0.0,0.0,1.0
1623677062.46875,0,0,0.0,0.0,1.0
1623677062.9375,0,0,113.06560768861206,0.0,1.0
1623677063.40625,0,0,37.747063920633764,0.0,1.0
1623677063.875,0,0,-4.2746729791225695,0.0,1.0
1623677064.34375,0,0,30.05100319570575,0.0,1.0
1623677064.8125,0,0,73.17389133771671,0.0,1.0
1623677065.28125,0,0,-8.360712486169598,0.0,1.0
1623677065.75,0,0,24.28570435497237,0.0,1.0
1623677066.21875,0,0,0.0,0.0,1.0
1623677066.6875,0,0,171.58360957591046,0.0,1.0
1623677067.15625,0,0,0.0,0.0,1.0
1623677067.625,0,0,98.62062588706127,0.0,1.0
1623677068.09375,0,0,-4.484339313329008,0.0,1.0
1623677068.5625,0,0,111.0788073433463,0.0,1.0
1623677069.03125,0,0,0.0,0.0,1.0
1623677069.5,0,0,162.04842736350562,0.0,1.0
1623677069.96875,0,0,0.0,0.0,1.0
1623677070.4375,0,0,0.0,0.0,1.0
1623677070.90625,0,0,131.348434307199,0.0,1.0
1623677071.375,0,0,165.67807043112094,0.0,1.0
1623677071.84375,0,0,0.0,0.0,1.0
1623677072.3125,0,0,0.0,0.0,1.0
1623677072.78125,0,0,125.40746962279047,0.0,1.0
1623677073.25,0,0,0.0,0.0,1.0
1623677073.71875,0,0,55.92409318461137,0.0,1.0
1623677074.1875,0,0,0.0,0.0,1.0
1623677074.65625,0,0,0.33505933403052535,0.0,1.0
1623677075.125,0,0,19.657736996627154,0.0,1.0
1623677075.59375,0,0,6.29390160297903,0.0,1.0
1623677076.0625,0,0,9.666193429007674,0.0,1.0
1623677076.53125,0,0,9.772583407415885,0.0,1.0
1623677077.0,0,0,8.719569395175183,0.0,1.0
1623677077.46875,0,0,3.5221644961794603,0.0,1.0
1623677077.9375,0,0,4.029779078805136,0.0,1.0
1623677078.40625,0,0,9.201323175778251,0.0,1.0
1623677078.875,0,0,0.0,0.0,1.0
1623677079.34375,0,0,10.301036943282172,0.0,1.0
1623677079.8125,0,0,0.0,0.0,1.0
1623677080.28125,0,0,-4.6500840977043385,0.0,1.0
1623677080.75,0,0,81.95666238154124,0.0,1.0
1623677081.21875,0,0,0.0,0.0,1.0
1623677081.6875,0,0,44.50569075145925,0.0,1.0
1623677082.15625,0,0,20.18802424769176,0.0,1.0
1623677082.625,0,0,-3.3278820109122926,0.0,1.0
1623677083.09375,0,0,15.491260512660315,0.0,1.0
1623677083.5625,0,0,7.89935772820321,0.0,1.0
1623677084.03125,0,0,0.0,0.0,1.0
1623677084.5,0,0,-1.743224533141866,0.0,1.0
1623677084.96875,0,0,78.03177570216113,0.0,1.0
1623677085.4375,0,0,0.0,0.0,1.0
1623677085.90625,0,0,30.47870894468206,0.0,1.0
1623677086.375,0,0,9.751036954202918,0.0,1.0
1623677086.84375,0,0,2.4448811360354035,0.0,1.0
1623677087.3125,0,0,0.0,0.0,1.0
1623677087.78125,0,0,3.5249326025730796,0.0,1.0
1623677088.25,0,0,15.981891866059707,0.0,1.0
1623677088.71875,0,0,-4.477030682162759,0.0,1.0
1623677089.1875,0,0,0.0,0.0,1.0
1623677089.65625,0,0,115.7731870993004,0.0,1.0
1623677090.125,0,0,0.0,0.0,1.0
1623677090.59375,0,0,16.934796636260835,0.0,1.0
1623677091.0625,0,0,-3.183521443537069,0.0,1.0
1623677091.53125,0,0,0.0,0.0,1.0
1623677092.0,0,0,0.0,0.0,1.0
1623677092.46875,0,0,26.820290127742638,0.0,1.0
1623677092.9375,0,0,0.0,0.0,1.0
1623677093.40625,0,0,0.0,0.0,1.0
1623677093.875,0,0,0.0,0.0,1.0
1623677094.34375,0,0,18.540562602565345,0.0,1.0
1623677094.8125,0,0,0.0,0.0,1.0
1623677095.28125,0,0,85.05417343734692,0.0,1.0
1623677095.75,0,0,0.0,0.0,1.0
1623677096.21875,0,0,27.22724722518782,0.0,1.0
1623677096.6875,0,0,-11.823819998116571,0.0,1.0
1623677097.15625,0,0,-15.19685238739478,0.0,1.0
1623677097.625,0,0,142.2038908904519,0.0,1.0
1623677098.09375,0,0,0.0,0.0,1.0
1623677098.5625,0,0,52.722128057844536,0.0,1.0
1623677099.03125,0,0,0.0,0.0,1.0
1623677099.5,0,0,135.20529542926957,0.0,1.0
1623677099.96875,0,0,0.0,0.0,1.0
1623677100.4375,0,0,52.41933931266067,0.0,1.0
1623677100.90625,0,0,0.0,0.0,1.0
1623677101.375,0,0,134.24883113954678,0.0,1.0
1623677101.84375,0,0,0.0,0.0,1.0
1623677102.3125,0,0,0.0,0.0,1.0
1623677102.78125,0,0,-3.3951074537953545,0.0,1.0
1623677103.25,0,0,108.68281800764277,0.0,1.0
1623677103.71875,0,0,0.0,0.0,1.0
1623677104.1875,0,0,30.02561477740472,0.0,1.0
1623677104.65625,0,0,0.0,0.0,1.0
1623677105.125,0,0,0.0,0.0,1.0
1623677105.59375,0,0,245.8409950323695,0.0,1.0
1623677106.0625,0,0,0.0,0.0,1.0
1623677106.53125,0,0,44.52577719818488,0.0,1.0
1623677107.0,0,0,0.0,0.0,1.0
1623677107.46875,0,0,143.6835871578729,0.0,1.0
1623677107.9375,0,0,47.44698015331173,0.0,1.0
1623677108.40625,0,0,0.0,0.0,1.0
1623677108.875,0,0,0.0,0.0,1.0
1623677109.34375,0,0,157.6559785384087,0.0,1.0
1623677109.8125,0,0,0.0,0.0,1.0
1623677110.28125,0,0,55.26285739957701,0.0,1.0
1623677110.75,0,0,24.933855435215865,0.0,1.0
1623677111.21875,0,0,102.07861603570964,0.0,1.0
1623677111.6875,0,0,0.0,0.0,1.0
1623677112.15625,0,0,25.31733260346845,0.0,1.0
1623677112.625,0,0,9.613680191353337,0.0,1.0
1623677113.09375,0,0,124.33548268626501,0.0,1.0
1623677113.5625,0,0,0.0,0.0,1.0
1623677114.03125,0,0,24.80831911394483,0.0,1.0
1623677114.5,0,0,0.0,0.0,1.0
1623677114.96875,0,0,58.34672343210804,0.0,1.0
1623677115.4375,0,0,0.0,0.0,1.0
1623677115.90625,0,0,20.949944936907198,0.0,1.0
1623677116.375,0,0,7.162074878250444,0.0,1.0
1623677116.84375,0,0,57.45657888493566,0.0,1.0
1623677117.3125,0,0,0.0,0.0,1.0
1623677117.78125,0,0,10.619657118743213,0.0,1.0
1623677118.25,0,0,30.757029209647865,0.0,1.0
1623677118.71875,0,0,91.76149542526673,0.0,1.0
1623677119.1875,0,0,0.0,0.0,1.0
1623677119.65625,0,0,40.82549970535085,0.0,1.0
1623677120.125,0,0,8.530288623477128,0.0,1.0
1623677120.59375,0,0,1.9879777208397733,0.0,1.0
1623677121.0625,0,0,77.01984734052192,0.0,1.0
1623677121.53125,0,0,26.73864127570577,0.0,1.0
1623677122.0,0,0,-10.760091649444195,0.0,1.0
1623677122.46875,0,0,0.0,0.0,1.0
1623677122.9375,0,0,212.8215113875752,0.0,1.0
1623677123.40625,0,0,0.0,0.0,1.0
1623677123.875,0,0,71.94976384138496,0.0,1.0
1623677124.34375,0,0,47.343591388876966,0.0,1.0
1623677124.8125,0,0,84.91645654250449,0.0,1.0
1623677125.28125,0,0,0.0,0.0,1.0
1623677125.75,0,0,24.604252136262517,0.0,1.0
1623677126.21875,0,0,0.0,0.0,1.0
1623677126.6875,0,0,200.7944020549846,0.0,1.0
1623677127.15625,0,0,0.0,0.0,1.0
1623677127.625,0,0,61.308215295098385,0.0,1.0
1623677128.09375,0,0,-19.12141749723564,0.0,1.0
1623677128.5625,0,0,92.45321529973751,0.0,1.0
1623677129.03125,0,0,158.5089297895619,0.0,1.0
1623677129.5,0,0,0.0,0.0,1.0
1623677129.96875,0,0,63.418847570219285,0.0,1.0
1623677130.4375,0,0,64.95261729414415,0.0,1.0
1623677130.90625,0,0,-58.37940543696391,0.0,1.0
1623677131.375,0,0,24.76282545199873,0.0,1.0
1623677131.84375,0,0,16.174784338224633,0.0,1.0
1623677132.3125,0,0,30.118661572053124,0.0,1.0
1623677132.78125,0,0,3.5484286371620803,0.0,1.0
1623677133.25,0,0,24.242327888169417,0.0,1.0
1623677133.71875,0,0,18.007599810385134,0.0,1.0
1623677134.1875,0,0,22.497589357158102,0.0,1.0
1623677134.65625,0,0,-8.562902176842119,0.0,1.0
1623677135.125,0,0,0.0,0.0,1.0
1623677135.59375,0,0,128.1392980708608,0.0,1.0
1623677136.0625,0,0,6.343971541412183,0.0,1.0
1623677136.53125,0,0,58.05004436856456,0.0,1.0
1623677137.0,0,0,0.0,0.0,1.0
1623677137.46875,0,0,169.72060148922355,0.0,1.0
1623677137.9375,0,0,0.0,0.0,1.0
1623677138.40625,0,0,0.0,0.0,1.0
1623677138.875,0,0,75.98372173842282,0.0,1.0
1623677139.34375,0,0,0.0,0.0,1.0
1623677139.8125,0,0,72.11894477640466,0.0,1.0
1623677140.28125,0,0,0.0,0.0,1.0
1623677140.75,0,0,-1.59845246612413,0.0,1.0
1623677141.21875,0,0,0.598809545025542,0.0,1.0
1623677141.6875,0,0,29.9119972778455,0.0,1.0
1623677142.15625,0,0,3.187624379969796,0.0,1.0
1623677142.625,0,0,8.764450976345266,0.0,1.0
1623677143.09375,0,0,10.837892837414511,0.0,1.0
1623677143.5625,0,0,3.9394152587660196,0.0,1.0
1623677144.03125,0,0,9.043865131549671,0.0,1.0
1623677144.5,0,0,6.794468574528756,0.0,1.0
1623677144.96875,0,0,30.33817630284479,0.0,1.0
1623677145.4375,0,0,3.647109692052699,0.0,1.0
1623677145.90625,0,0,-21.6730725735157,0.0,1.0
1623677146.375,0,0,0.0,0.0,1.0
1623677146.84375,0,0,172.9604490459166,0.0,1.0
1623677147.3125,0,0,0.0,0.0,1.0
1623677147.78125,0,0,216.58468277582952,0.0,1.0
1623677148.25,0,0,152.5648653517679,0.0,1.0
1623677148.71875,0,0,0.0,0.0,1.0
1623677149.1875,0,0,0.0,0.0,1.0
1623677149.65625,0,0,128.1777545753719,0.0,1.0
1623677150.125,0,0,40.16582567257062,0.0,1.0
1623677150.59375,0,0,22.896813702149185,0.0,1.0
1623677151.0625,0,0,0.0,0.0,1.0
1623677151.53125,0,0,147.87152736138964,0.0,1.0
1623677152.0,0,0,0.0,0.0,1.0
1623677152.46875,0,0,47.09053902533161,0.0,1.0
1623677152.9375,0,0,-3.259192781155537,0.0,1.0
1623677153.40625,0,0,0.0,0.0,1.0
1623677153.875,0,0,137.2505851842675,0.0,1.0
1623677154.34375,0,0,0.0,0.0,1.0
1623677154.8125,0,0,63.85078182774743,0.0,1.0
1623677155.28125,0,0,28.71232485372406,0.0,1.0
1623677155.75,0,0,83.27353505716339,0.0,1.0
1623677156.21875,0,0,29.85905233547854,0.0,1.0
1623677156.6875,0,0,9.258291057096896,0.0,1.0
1623677157.15625,0,0,2.0715835435999796,0.0,1.0
1623677157.625,0,0,78.39655554075374,0.0,1.0
1623677158.09375,0,0,15.344234170421256,0.0,1.0
1623677158.5625,0,0,17.966056261384146,0.0,1.0
1623677159.03125,0,0,0.0,0.0,1.0
1623677159.5,0,0,65.81468990599586,0.0,1.0
1623677159.96875,0,0,-12.823115363417488,0.0,1.0
1623677160.4375,0,0,0.0,0.0,1.0
1623677160.90625,0,0,4.769386940196985,0.0,1.0
1623677161.375,0,0,81.48795141637198,0.0,1.0
1623677161.84375,0,0,0.0,0.0,1.0
1623677162.3125,0,0,5.045328675703713,0.0,1.0
1623677162.78125,0,0,0.0,0.0,1.0
1623677163.25,0,0,78.50753558785644,0.0,1.0
1623677163.71875,0,0,0.0,0.0,1.0
1623677164.1875,0,0,26.28451669448469,0.0,1.0
1623677164.65625,0,0,-2.523377885179357,0.0,1.0
1623677165.125,0,0,97.98598719971602,0.0,1.0
1623677165.59375,0,0,0.0,0.0,1.0
1623677166.0625,0,0,25.018320571575227,0.0,1.0
1623677166.53125,0,0,0.03583203310978206,0.0,1.0
1623677167.0,0,0,0.0,0.0,1.0
1623677167.46875,0,0,170.3147886452435,0.0,1.0
1623677167.9375,0,0,0.0,0.0,1.0
1623677168.40625,0,0,63.034418333438374,0.0,1.0
1623677168.875,0,0,0.0,0.0,1.0
1623677169.34375,0,0,67.62277152009236,0.0,1.0
1623677169.8125,0,0,21.973825514780764,0.0,1.0
1623677170.28125,0,0,7.215248283477896,0.0,1.0
1623677170.75,0,0,1.1459400661929542,0.0,1.0
1623677171.21875,0,0,81.49058694150091,0.0,1.0
1623677171.6875,0,0,23.619827836879733,0.0,1.0
1623677172.15625,0,0,13.092924512933532,0.0,1.0
1623677172.625,0,0,0.0,0.0,1.0
1623677173.09375,0,0,0.0,0.0,1.0
1623677173.5625,0,0,0.0,0.0,1.0
1623677174.03125,0,0,52.964251706651545,0.0,1.0
1623677174.5,0,0,53.19483370316978,0.0,1.0
1623677174.96875,0,0,123.42879611989042,0.0,1.0
1623677175.4375,0,0,0.0,0.0,1.0
1623677175.90625,0,0,55.78289166550516,0.0,1.0
1623677176.375,0,0,0.0,0.0,1.0
1623677176.84375,0,0,67.87153899965318,0.0,1.0
1623677177.3125,0,0,0.0,0.0,1.0
1623677177.78125,0,0,31.726699923364514,0.0,1.0
1623677178.25,0,0,8.937734613624887,0.0,1.0
1623677178.71875,0,0,64.09005413906911,0.0,1.0
1623677179.1875,0,0,0.0,0.0,1.0
1623677179.65625,0,0,3.9542629672922156,0.0,1.0
1623677180.125,0,0,0.0,0.0,1.0
1623677180.59375,0,0,0.0,0.0,1.0
1623677181.0625,0,0,0.0,0.0,1.0
1623677181.53125,0,0,25.209832599420523,0.0,1.0
1623677182.0,0,0,-7.123379568328616,0.0,1.0
1623677182.46875,0,0,0.0,0.0,1.0
1623677182.9375,0,0,185.24944104626024,0.0,1.0
1623677183.40625,0,0,36.508849474954445,0.0,1.0
1623677183.875,0,0,50.87308352246455,0.0,1.0
1623677184.34375,0,0,0.0,0.0,1.0
1623677184.8125,0,0,46.831823426245734,0.0,1.0
1623677185.28125,0,0,-9.968103373009493,0.0,1.0
1623677185.75,0,0,0.0,0.0,1.0
1623677186.21875,0,0,17.148809661381144,0.0,1.0
1623677186.6875,0,0,53.448401954490045,0.0,1.0
1623677187.15625,0,0,0.0,0.0,1.0
1623677187.625,0,0,233.40779159209586,0.0,1.0
1623677188.09375,0,0,0.0,0.0,1.0
1623677188.5625,0,0,0.0,0.0,1.0
1623677189.03125,0,0,146.97710815121653,0.0,1.0
1623677189.5,0,0,158.5371241166015,0.0,1.0
1623677189.96875,0,0,0.0,0.0,1.0
1623677190.4375,0,0,31.214389765563293,0.0,1.0
1623677190.90625,0,0,39.017423656938576,0.0,1.0
1623677191.375,0,0,0.0,0.0,1.0
1623677191.84375,0,0,0.0,0.0,1.0
1623677192.3125,0,0,88.24373154425312,0.0,1.0
1623677192.78125,0,0,0.0,0.0,1.0
1623677193.25,0,0,99.51041271431387,0.0,1.0
1623677193.71875,0,0,0.0,0.0,1.0
1623677194.1875,0,0,33.47493518667779,0.0,1.0
1623677194.65625,0,0,140.20286762129476,0.0,1.0
1623677195.125,0,0,0.0,0.0,1.0
1623677195.59375,0,0,250.99817447608595,0.0,1.0
1623677196.0625,0,0,0.0,0.0,1.0
1623677196.53125,0,0,62.59428465374226,0.0,1.0
1623677197.0,0,0,123.65555666818372,0.0,1.0
1623677197.46875,0,0,0.0,0.0,1.0
1623677197.9375,0,0,-62.643031712425085,0.0,1.0
1623677198.40625,0,0,243.59104223762353,0.0,1.0
1623677198.875,0,0,0.0,0.0,1.0
1623677199.34375,0,0,73.20805088875278,0.0,1.0
1623677199.8125,0,0,0.0,0.0,1.0
1623677200.28125,0,0,98.48425425038046,0.0,1.0
1623677200.75,0,0,6.050253185137763,0.0,1.0
1623677201.21875,0,0,8.175455541481584,0.0,1.0
1623677201.6875,0,0,19.424249905467335,0.0,1.0
1623677202.15625,0,0,0.0,0.0,1.0
1623677202.625,0,0,13.043857466002716,0.0,1.0
1623677203.09375,0,0,4.159379868381974,0.0,1.0
1623677203.5625,0,0,0.0,0.0,1.0
1623677204.03125,0,0,19.186045945110376,0.0,1.0
1623677204.5,0,0,11.883896984967215,0.0,1.0
1623677204.96875,0,0,-31.130156615472373,0.0,1.0
1623677205.4375,0,0,0.0,0.0,1.0
1623677205.90625,0,0,162.8297233793624,0.0,1.0
1623677206.375,0,0,0.0,0.0,1.0
1623677206.84375,0,0,0.0,0.0,1.0
1623677207.3125,0,0,0.0,0.0,1.0
1623677207.78125,0,0,103.77937756540366,0.0,1.0
1623677208.25,0,0,-25.370514526938898,0.0,1.0
1623677208.71875,0,0,15.727751618547357,0.0,1.0
1623677209.1875,0,0,0.0,0.0,1.0
1623677209.65625,0,0,132.5676687258321,0.0,1.0
1623677210.125,0,0,0.0,0.0,1.0
1623677210.59375,0,0,28.829403436636095,0.0,1.0
1623677211.0625,0,0,0.0,0.0,1.0
1623677211.53125,0,0,181.80669724879803,0.0,1.0
1623677212.0,0,0,0.0,0.0,1.0
1623677212.46875,0,0,40.63983754597001,0.0,1.0
1623677212.9375,0,0,17.046519106391624,0.0,1.0
1623677213.40625,0,0,115.56304168317634,0.0,1.0
1623677213.875,0,0,0.0,0.0,1.0
1623677214.34375,0,0,34.67174416792488,0.0,1.0
1623677214.8125,0,0,0.0,0.0,1.0
1623677215.28125,0,0,180.26679175092235,0.0,1.0
1623677215.75,0,0,0.0,0.0,1.0
1623677216.21875,0,0,41.778166846369444,0.0,1.0
1623677216.6875,0,0,55.01846992602787,0.0,1.0
1623677217.15625,0,0,101.62453321570851,0.0,1.0
1623677217.625,0,0,23.858388992981606,0.0,1.0
1623677218.09375,0,0,0.0,0.0,1.0
1623677218.5625,0,0,3.1082620600277346,0.0,1.0
1623677219.03125,0,0,103.28095273846918,0.0,1.0
1623677219.5,0,0,0.0,0.0,1.0
1623677219.96875,0,0,39.97655559419551,0.0,1.0
1623677220.4375,0,0,1.0420891418685714,0.0,1.0
1623677220.90625,0,0,0.0,0.0,1.0
1623677221.375,0,0,0.0,0.0,1.0
1623677221.84375,0,0,44.08427505512724,0.0,1.0
1623677222.3125,0,0,0.0,0.0,1.0
1623677222.78125,0,0,0.0,0.0,1.0
1623677223.25,0,0,95.88743526700623,0.0,1.0
1623677223.71875,0,0,0.0,0.0,1.0
1623677224.1875,0,0,22.691105388309712,0.0,1.0
1623677224.65625,0,0,0.0,0.0,1.0
1623677225.125,0,0,80.75571378244291,0.0,1.0
1623677225.59375,0,0,0.0,0.0,1.0
1623677226.0625,0,0,39.48587020781337,0.0,1.0
1623677226.53125,0,0,4.468320780595877,0.0,1.0
1623677227.0,0,0,127.83746541192643,0.0,1.0
1623677227.46875,0,0,0.0,0.0,1.0
1623677227.9375,0,0,40.95707171820848,0.0,1.0
1623677228.40625,0,0,0.0,0.0,1.0
1623677228.875,0,0,0.0,0.0,1.0
1623677229.34375,0,0,165.21294012973814,0.0,1.0
1623677229.8125,0,0,0.0,0.0,1.0
1623677230.28125,0,0,89.61736189600633,0.0,1.0
1623677230.75,0,0,0.0,0.0,1.0
1623677231.21875,0,0,129.7064169231601,0.0,1.0
1623677231.6875,0,0,0.0,0.0,1.0
1623677232.15625,0,0,54.90534429055605,0.0,1.0
1623677232.625,0,0,11.755046145433095,0.0,1.0
1623677233.09375,0,0,110.34445030664611,0.0,1.0
1623677233.5625,0,0,0.0,0.0,1.0
1623677234.03125,0,0,54.58510450600005,0.0,1.0
1623677234.5,0,0,-3.8858160276891147,0.0,1.0
1623677234.96875,0,0,-2.8458283809337623,0.0,1.0
1623677235.4375,0,0,79.37040102443792,0.0,1.0
1623677235.90625,0,0,0.0,0.0,1.0
1623677236.375,0,0,108.11430451686154,0.0,1.0
1623677236.84375,0,0,69.64183473995402,0.0,1.0
1623677237.3125,0,0,120.40332765565813,0.0,1.0
1623677237.78125,0,0,0.0,0.0,1.0
1623677238.25,0,0,26.96833638817162,0.0,1.0
1623677238.71875,0,0,0.0,0.0,1.0
1623677239.1875,0,0,129.18940372287457,0.0,1.0
1623677239.65625,0,0,0.0,0.0,1.0
1623677240.125,0,0,40.143569248839114,0.0,1.0
1623677240.59375,0,0,8.733343423180074,0.0,1.0
1623677241.0625,0,0,163.17273063926515,0.0,1.0
1623677241.53125,0,0,0.0,0.0,1.0
1623677242.0,0,0,33.18577547053931,0.0,1.0
1623677242.46875,0,0,0.0,0.0,1.0
1623677242.9375,0,0,0.0,0.0,1.0
1623677243.40625,0,0,118.56297687980341,0.0,1.0
1623677243.875,0,0,40.17587112545963,0.0,1.0
1623677244.34375,0,0,31.20910261726076,0.0,1.0
1623677244.8125,0,0,12.950960424944816,0.0,1.0
1623677245.28125,0,0,44.951418504939454,0.0,1.0
1623677245.75,0,0,32.64996980354827,0.0,1.0
1623677246.21875,0,0,5.08709882421289,0.0,1.0
1623677246.6875,0,0,0.0,0.0,1.0
1623677247.15625,0,0,61.72416826350474,0.0,1.0
1623677247.625,0,0,0.0,0.0,1.0
1623677248.09375,0,0,20.97548404327705,0.0,1.0
1623677248.5625,0,0,14.736973540326277,0.0,1.0
1623677249.03125,0,0,0.05255801093875995,0.0,1.0
1623677249.5,0,0,6.054478495814267,0.0,1.0
1623677249.96875,0,0,10.47638589436913,0.0,1.0
1623677250.4375,0,0,0.0,0.0,1.0
1623677250.90625,0,0,0.7748013732594251,0.0,1.0
1623677251.375,0,0,5.273373136225509,0.0,1.0
1623677251.84375,0,0,7.667790609613579,0.0,1.0
1623677252.3125,0,0,7.339800486862351,0.0,1.0
1623677252.78125,0,0,5.533939625362127,0.0,1.0
1623677253.25,0,0,6.768869288958183,0.0,1.0
1623677253.71875,0,0,1.1579387390021525,0.0,1.0
1623677254.1875,0,0,0.0,0.0,1.0
1623677254.65625,0,0,0.0,0.0,1.0
1623677255.125,0,0,-1.2049491815859428,0.0,1.0
1623677255.59375,0,0,8.72727434937234,0.0,1.0
1623677256.0625,0,0,8.315252836404635,0.0,1.0
1623677256.53125,0,0,1.169196344651325,0.0,1.0
1623677257.0,0,0,3.0206817004160516,0.0,1.0
1623677257.46875,0,0,5.600645607568848,0.0,1.0
1623677257.9375,0,0,1.8824041181360123,0.0,1.0
1623677258.40625,0,0,-2.2689629662150494,0.0,1.0
1623677258.875,0,0,0.0,0.0,1.0
1623677259.34375,0,0,50.36744744059321,0.0,1.0
1623677259.8125,0,0,0.0,0.0,1.0
1623677260.28125,0,0,4.258930993365531,0.0,1.0
1623677260.75,0,0,24.099875918645786,0.0,1.0
1623677261.21875,0,0,24.84494828198311,0.0,1.0
1623677261.6875,0,0,-5.954985912715429,0.0,1.0
1623677262.15625,0,0,0.0,0.0,1.0
1623677262.625,0,0,175.89138594598188,0.0,1.0
1623677263.09375,0,0,89.68284185117652,0.0,1.0
1623677263.5625,0,0,0.0,0.0,1.0
1623677264.03125,0,0,145.64549276658917,0.0,1.0
1623677264.5,0,0,0.0,0.0,1.0
1623677264.96875,0,0,145.75774330849626,0.0,1.0
1623677265.4375,0,0,-50.88191144385226,0.0,1.0
1623677265.90625,0,0,111.59707376593312,0.0,1.0
1623677266.375,0,0,0.0,0.0,1.0
1623677266.84375,0,0,126.82004405694005,0.0,1.0
1623677267.3125,0,0,0.0,0.0,1.0
1623677267.78125,0,0,20.20990741395345,0.0,1.0
1623677268.25,0,0,-2.691934102606893,0.0,1.0
1623677268.71875,0,0,2.318259324593626,0.0,1.0
1623677269.1875,0,0,0.0,0.0,1.0
1623677269.65625,0,0,-3.4487167422502223,0.0,1.0
1623677270.125,0,0,23.187633869599143,0.0,1.0
1623677270.59375,0,0,0.0,0.0,1.0
1623677271.0625,0,0,65.07037627473186,0.0,1.0
1623677271.53125,0,0,45.06787358477697,0.0,1.0
1623677272.0,0,0,14.218467663280395,0.0,1.0
1623677272.46875,0,0,30.61524685788148,0.0,1.0
1623677272.9375,0,0,111.54265130212458,0.0,1.0
1623677273.40625,0,0,0.0,0.0,1.0
1623677273.875,0,0,45.773879740672974,0.0,1.0
1623677274.34375,0,0,0.0,0.0,1.0
1623677274.8125,0,0,0.0,0.0,1.0
1623677275.28125,0,0,-13.099974547337412,0.0,1.0
1623677275.75,0,0,19.340481501458413,0.0,1.0
1623677276.21875,0,0,2.9653869731404705,0.0,1.0
1623677276.6875,0,0,115.20211410203694,0.0,1.0
1623677277.15625,0,0,0.0,0.0,1.0
1623677277.625,0,0,24.187918512907558,0.0,1.0
1623677278.09375,0,0,17.668819397251365,0.0,1.0
1623677278.5625,0,0,0.0,0.0,1.0
1623677279.03125,0,0,142.51512139915266,0.0,1.0
1623677279.5,0,0,32.36597132182985,0.0,1.0
1623677279.96875,0,0,-6.458900212898937,0.0,1.0
1623677280.4375,0,0,-18.714609341175233,0.0,1.0
1623677280.90625,0,0,199.61213179507834,0.0,1.0
1623677281.375,0,0,0.0,0.0,1.0
1623677281.84375,0,0,66.42619607394306,0.0,1.0
1623677282.3125,0,0,0.0,0.0,1.0
1623677282.78125,0,0,71.42854207543407,0.0,1.0
1623677283.25,0,0,0.0,0.0,1.0
1623677283.71875,0,0,35.201687859479684,0.0,1.0
1623677284.1875,0,0,-14.558775826954557,0.0,1.0
1623677284.65625,0,0,0.0,0.0,1.0
1623677285.125,0,0,178.2547091888391,0.0,1.0
1623677285.59375,0,0,0.0,0.0,1.0
1623677286.0625,0,0,40.038743519591904,0.0,1.0
1623677286.53125,0,0,10.891187924144376,0.0,1.0
1623677287.0,0,0,83.9774806352505,0.0,1.0
1623677287.46875,0,0,32.471596771701336,0.0,1.0
1623677287.9375,0,0,6.528460154469286,0.0,1.0
1623677288.40625,0,0,0.0,0.0,1.0
1623677288.875,0,0,103.79279827348891,0.0,1.0
1623677289.34375,0,0,46.19490512271126,0.0,1.0
1623677289.8125,0,0,38.27870094945126,0.0,1.0
1623677290.28125,0,0,45.645896718979905,0.0,1.0
1623677290.75,0,0,94.50902016452034,0.0,1.0
1623677291.21875,0,0,0.0,0.0,1.0
1623677291.6875,0,0,38.97419308324183,0.0,1.0
1623677292.15625,0,0,0.0,0.0,1.0
1623677292.625,0,0,20.360348233983295,0.0,1.0
1623677293.09375,0,0,132.42443824231037,0.0,1.0
1623677293.5625,0,0,0.0,0.0,1.0
1623677294.03125,0,0,36.94224955537855,0.0,1.0
1623677294.5,0,0,0.0,0.0,1.0
1623677294.96875,0,0,121.93610361168679,0.0,1.0
1623677295.4375,0,0,21.01487883478666,0.0,1.0
1623677295.90625,0,0,13.612783841772506,0.0,1.0
1623677296.375,0,0,0.0,0.0,1.0
1623677296.84375,0,0,117.86838451074209,0.0,1.0
1623677297.3125,0,0,0.0,0.0,1.0
1623677297.78125,0,0,48.626334973513806,0.0,1.0
1623677298.25,0,0,1.1328713233393306,0.0,1.0
1623677298.71875,0,0,139.1748240398994,0.0,1.0
1623677299.1875,0,0,0.0,0.0,1.0
1623677299.65625,0,0,40.05465056793101,0.0,1.0
1623677300.125,0,0,0.0,0.0,1.0
1623677300.59375,0,0,26.5240292279172,0.0,1.0
1623677301.0625,0,0,115.78996339667732,0.0,1.0
1623677301.53125,0,0,0.0,0.0,1.0
1623677302.0,0,0,38.07604905456153,0.0,1.0
1623677302.46875,0,0,5.072551917403592,0.0,1.0
1623677302.9375,0,0,0.0,0.0,1.0
1623677303.40625,0,0,119.14952903160794,0.0,1.0
1623677303.875,0,0,0.0,0.0,1.0
1623677304.34375,0,0,0.0,0.0,1.0
1623677304.8125,0,0,0.0,0.0,1.0
1623677305.28125,0,0,131.60970318926144,0.0,1.0
1623677305.75,0,0,0.0,0.0,1.0
1623677306.21875,0,0,23.55026788383155,0.0,1.0
1623677306.6875,0,0,0.0,0.0,1.0
1623677307.15625,0,0,131.3989443715733,0.0,1.0
1623677307.625,0,0,68.5197761952784,0.0,1.0
1623677308.09375,0,0,58.35609448119939,0.0,1.0
1623677308.5625,0,0,-0.9653356613711281,0.0,1.0
1623677309.03125,0,0,-13.164493624397803,0.0,1.0
1623677309.5,0,0,0.7665852735906588,0.0,1.0
1623677309.96875,0,0,13.200075290832118,0.0,1.0
1623677310.4375,0,0,10.476456204249507,0.0,1.0
1623677310.90625,0,0,4.511290621660008,0.0,1.0
1623677311.375,0,0,-2.5275103187616983,0.0,1.0
1623677311.84375,0,0,9.369110282085352,0.0,1.0
1623677312.3125,0,0,14.54258067559795,0.0,1.0
1623677312.78125,0,0,6.167300244447819,0.0,1.0
1623677313.25,0,0,-24.225316270981647,0.0,1.0
1623677313.71875,0,0,96.34328650777381,0.0,1.0
1623677314.1875,0,0,114.94511565236638,0.0,1.0
1623677314.65625,0,0,90.68262063171572,0.0,1.0
1623677315.125,0,0,88.74430023542826,0.0,1.0
1623677315.59375,0,0,0.0,0.0,1.0
1623677316.0625,0,0,49.67979620063738,0.0,1.0
1623677316.53125,0,0,0.0,0.0,1.0
1623677317.0,0,0,0.0,0.0,1.0
1623677317.46875,0,0,288.7905821275995,0.0,1.0
1623677317.9375,0,0,0.0,0.0,1.0
1623677318.40625,0,0,133.43610860600776,0.0,1.0
1623677318.875,0,0,0.0,0.0,1.0
1623677319.34375,0,0,0.0,0.0,1.0
1623677319.8125,0,0,-1.8586121754681497,0.0,1.0
1623677320.28125,0,0,15.18018454155042,0.0,1.0
1623677320.75,0,0,12.004809974109001,0.0,1.0
1623677321.21875,0,0,-1.7280199428373295,0.0,1.0
1623677321.6875,0,0,4.6057676612195015,0.0,1.0
1623677322.15625,0,0,11.552619423726043,0.0,1.0
1623677322.625,0,0,2.982167818424494,0.0,1.0
1623677323.09375,0,0,0.0,0.0,1.0
1623677323.5625,0,0,-13.000252605334529,0.0,1.0
1623677324.03125,0,0,103.54684057286435,0.0,1.0
1623677324.5,0,0,0.0,0.0,1.0
1623677324.96875,0,0,6.981479949816965,0.0,1.0
1623677325.4375,0,0,0.0,0.0,1.0
1623677325.90625,0,0,128.14942453322294,0.0,1.0
1623677326.375,0,0,0.0,0.0,1.0
1623677326.84375,0,0,43.61232773717942,0.0,1.0
1623677327.3125,0,0,6.520785835978271,0.0,1.0
1623677327.78125,0,0,85.86982622922648,0.0,1.0
1623677328.25,0,0,0.0,0.0,1.0
1623677328.71875,0,0,20.563591026175743,0.0,1.0
1623677329.1875,0,0,0.0,0.0,1.0
1623677329.65625,0,0,87.2622935904028,0.0,1.0
1623677330.125,0,0,0.0,0.0,1.0
1623677330.59375,0,0,22.02408391896144,0.0,1.0
1623677331.0625,0,0,-16.977439676067714,0.0,1.0
1623677331.53125,0,0,-16.278126217559834,0.0,1.0
1623677332.0,0,0,138.28821795338706,0.0,1.0
1623677332.46875,0,0,0.0,0.0,1.0
1623677332.9375,0,0,42.20749516580143,0.0,1.0
1623677333.40625,0,0,0.0,0.0,1.0
1623677333.875,0,0,91.55100411825073,0.0,1.0
1623677334.34375,0,0,0.0,0.0,1.0
1623677334.8125,0,0,26.92600123247356,0.0,1.0
1623677335.28125,0,0,16.209613544988258,0.0,1.0
1623677335.75,0,0,71.1889165224808,0.0,1.0
1623677336.21875,0,0,0.0,0.0,1.0
1623677336.6875,0,0,27.158226082598933,0.0,1.0
1623677337.15625,0,0,0.0,0.0,1.0
1623677337.625,0,0,0.0,0.0,1.0
1623677338.09375,0,0,179.45157323589416,0.0,1.0
1623677338.5625,0,0,0.0,0.0,1.0
1623677339.03125,0,0,51.251575937921245,0.0,1.0
1623677339.5,0,0,9.291583772412261,0.0,1.0
1623677339.96875,0,0,39.16923703881754,0.0,1.0
1623677340.4375,0,0,11.610072414793263,0.0,1.0
1623677340.90625,0,0,-12.751123978644072,0.0,1.0
1623677341.375,0,0,-17.016307329757574,0.0,1.0
1623677341.84375,0,0,165.33011165693307,0.0,1.0
1623677342.3125,0,0,0.0,0.0,1.0
1623677342.78125,0,0,38.98885232691401,0.0,1.0
1623677343.25,0,0,0.0,0.0,1.0
1623677343.71875,0,0,125.78131883328783,0.0,1.0
1623677344.1875,0,0,0.0,0.0,1.0
1623677344.65625,0,0,37.67129103467698,0.0,1.0
1623677345.125,0,0,14.014955576849541,0.0,1.0
1623677345.59375,0,0,103.21823757649797,0.0,1.0
1623677346.0625,0,0,0.0,0.0,1.0
1623677346.53125,0,0,29.525815120062276,0.0,1.0
1623677347.0,0,0,5.214378504176238,0.0,1.0
1623677347.46875,0,0,83.30095407032884,0.0,1.0
1623677347.9375,0,0,0.0,0.0,1.0
1623677348.40625,0,0,19.344283807620588,0.0,1.0
1623677348.875,0,0,0.0,0.0,1.0
1623677349.34375,0,0,0.0,0.0,1.0
1623677349.8125,0,0,77.96019526149031,0.0,1.0
1623677350.28125,0,0,0.0,0.0,1.0
1623677350.75,0,0,10.702682870465624,0.0,1.0
1623677351.21875,0,0,5.583646007819494,0.0,1.0
1623677351.6875,0,0,40.66406503205126,0.0,1.0
1623677352.15625,0,0,-30.98652589378291,0.0,1.0
1623677352.625,0,0,89.46165948251942,0.0,1.0
1623677353.09375,0,0,0.0,0.0,1.0
1623677353.5625,0,0,31.304550157646172,0.0,1.0
1623677354.03125,0,0,20.763889292398346,0.0,1.0
1623677354.5,0,0,10.258810673464808,0.0,1.0
1623677354.96875,0,0,0.0,0.0,1.0
1623677355.4375,0,0,48.2275613405777,0.0,1.0
1623677355.90625,0,0,0.0,0.0,1.0
1623677356.375,0,0,9.92374073628339,0.0,1.0
1623677356.84375,0,0,13.82713050496182,0.0,1.0
1623677357.3125,0,0,17.460811992395776,0.0,1.0
1623677357.78125,0,0,0.0,0.0,1.0
1623677358.25,0,0,-40.12495371424705,0.0,1.0
1623677358.71875,0,0,157.93108487037094,0.0,1.0
1623677359.1875,0,0,0.0,0.0,1.0
1623677359.65625,0,0,-72.33043772451752,0.0,1.0
1623677360.125,0,0,82.44211530619549,0.0,1.0
1623677360.59375,0,0,0.0,0.0,1.0
1623677361.0625,0,0,-15.136185831965427,0.0,1.0
1623677361.53125,0,0,29.176319438729692,0.0,1.0
1623677362.0,0,0,0.0,0.0,1.0
1623677362.46875,0,0,21.052748802421448,0.0,1.0
1623677362.9375,0,0,0.0,0.0,1.0
1623677363.40625,0,0,0.0,0.0,1.0
1623677363.875,0,0,111.80279769537714,0.0,1.0
1623677364.34375,0,0,0.0,0.0,1.0
1623677364.8125,0,0,11.09241942008515,0.0,1.0
1623677365.28125,0,0,5.012438947434188,0.0,1.0
1623677365.75,0,0,67.80621493545637,0.0,1.0
1623677366.21875,0,0,22.2097619241967,0.0,1.0
1623677366.6875,0,0,19.107875972926625,0.0,1.0
1623677367.15625,0,0,5.103455450454402,0.0,1.0
1623677367.625,0,0,0.0,0.0,1.0
1623677368.09375,0,0,1.1360961004999734,0.0,1.0
1623677368.5625,0,0,5.961011863067328,0.0,1.0
1623677369.03125,0,0,8.752717500580442,0.0,1.0
1623677369.5,0,0,2.842079725396577,0.0,1.0
1623677369.96875,0,0,5.004632107359535,0.0,1.0
1623677370.4375,0,0,4.9199688528761545,0.0,1.0
1623677370.90625,0,0,3.4827964195053878,0.0,1.0
1623677371.375,0,0,1.4958909584885467,0.0,1.0
1623677371.84375,0,0,7.321351307285714,0.0,1.0
1623677372.3125,0,0,4.313955402241651,0.0,1.0
1623677372.78125,0,0,0.2857073796481903,0.0,1.0
1623677373.25,0,0,4.166440153363045,0.0,1.0
1623677373.71875,0,0,6.3409931650286895,0.0,1.0
1623677374.1875,0,0,3.284097175401098,0.0,1.0
1623677374.65625,0,0,3.2513137167378883,0.0,1.0
1623677375.125,0,0,6.458169436872279,0.0,1.0
1623677375.59375,0,0,3.488091378286827,0.0,1.0
1623677376.0625,0,0,3.8073344842780585,0.0,1.0
1623677376.53125,0,0,5.398554138821478,0.0,1.0
1623677377.0,0,0,4.905541160438454,0.0,1.0
1623677377.46875,0,0,4.761452333165268,0.0,1.0
1623677377.9375,0,0,5.356051839803957,0.0,1.0
1623677378.40625,0,0,3.426752383416515,0.0,1.0
1623677378.875,0,0,3.2663076274295983,0.0,1.0
1623677379.34375,0,0,4.624399891517613,0.0,1.0
1623677379.8125,0,0,3.922593548562864,0.0,1.0
1623677380.28125,0,0,6.444963259058604,0.0,1.0
1623677380.75,0,0,6.709244284165883,0.0,1.0
1623677381.21875,0,0,3.224246537256623,0.0,1.0
1623677381.6875,0,0,0.8836865980913178,0.0,1.0
1623677382.15625,0,0,-3.40713305564815,0.0,1.0
1623677382.625,0,0,82.54380766840127,0.0,1.0
1623677383.09375,0,0,0.0,0.0,1.0
1623677383.5625,0,0,7.216217012727998,0.0,1.0
1623677384.03125,0,0,4.240179440080657,0.0,1.0
1623677384.5,0,0,61.41306682528569,0.0,1.0
1623677384.96875,0,0,0.0,0.0,1.0
1623677385.4375,0,0,12.328186435068309,0.0,1.0
1623677385.90625,0,0,0.0,0.0,1.0
1623677386.375,0,0,45.34372276895989,0.0,1.0
1623677386.84375,0,0,0.0,0.0,1.0
1623677387.3125,0,0,21.780919893580016,0.0,1.0
1623677387.78125,0,0,-6.944717682832528,0.0,1.0
1623677388.25,0,0,0.0,0.0,1.0
1623677388.71875,0,0,161.28168151321862,0.0,1.0
1623677389.1875,0,0,0.0,0.0,1.0
1623677389.65625,0,0,231.07926117556548,0.0,1.0
1623677390.125,0,0,0.0,0.0,1.0
1623677390.59375,0,0,130.3135112709711,0.0,1.0
1623677391.0625,0,0,1.2475549417122997,0.0,1.0
1623677391.53125,0,0,9.903904639939064,0.0,1.0
1623677392.0,0,0,2.8898722987544128,0.0,1.0
1623677392.46875,0,0,66.47248215160586,0.0,1.0
1623677392.9375,0,0,0.0,0.0,1.0
1623677393.40625,0,0,12.149735003528956,0.0,1.0
1623677393.875,0,0,0.0,0.0,1.0
1623677394.34375,0,0,143.7768301025368,0.0,1.0
1623677394.8125,0,0,-95.39297240895986,0.0,1.0
1623677395.28125,0,0,38.83971968707539,0.0,1.0
1623677395.75,0,0,-3.180318182772233,0.0,1.0
1623677396.21875,0,0,0.0,0.0,1.0
1623677396.6875,0,0,124.86776790882186,0.0,1.0
1623677397.15625,0,0,42.28185972818406,0.0,1.0
1623677397.625,0,0,17.402329218045132,0.0,1.0
1623677398.09375,0,0,0.0,0.0,1.0
1623677398.5625,0,0,0.0,0.0,1.0
1623677399.03125,0,0,17.952166400662378,0.0,1.0
1623677399.5,0,0,5.695203660051681,0.0,1.0
1623677399.96875,0,0,0.0,0.0,1.0
1623677400.4375,0,0,72.90118390059922,0.0,1.0
1623677400.90625,0,0,4.516363891914525,0.0,1.0
1623677401.375,0,0,13.560930245003737,0.0,1.0
1623677401.84375,0,0,0.0,0.0,1.0
1623677402.3125,0,0,136.4638298080064,0.0,1.0
1623677402.78125,0,0,0.0,0.0,1.0
1623677403.25,0,0,34.332162204242756,0.0,1.0
1623677403.71875,0,0,9.586183836658018,0.0,1.0
1623677404.1875,0,0,55.04968615284949,0.0,1.0
1623677404.65625,0,0,4.563870272603825,0.0,1.0
1623677405.125,0,0,2.2803115064650727,0.0,1.0
1623677405.59375,0,0,-10.03431881249034,0.0,1.0
1623677406.0625,0,0,142.5917867904326,0.0,1.0
1623677406.53125,0,0,0.0,0.0,1.0
1623677407.0,0,0,31.394384055677488,0.0,1.0
1623677407.46875,0,0,-1.0588745190108884,0.0,1.0
1623677407.9375,0,0,71.62930679343675,0.0,1.0
1623677408.40625,0,0,0.0,0.0,1.0
1623677408.875,0,0,20.108805533673944,0.0,1.0
1623677409.34375,0,0,4.751597892037339,0.0,1.0
1623677409.8125,0,0,-0.21194777557126046,0.0,1.0
1623677410.28125,0,0,64.19965449788953,0.0,1.0
1623677410.75,0,0,19.32546833981507,0.0,1.0
1623677411.21875,0,0,4.802860109253223,0.0,1.0
1623677411.6875,0,0,0.0,0.0,1.0
1623677412.15625,0,0,183.99948891415232,0.0,1.0
1623677412.625,0,0,0.0,0.0,1.0
1623677413.09375,0,0,47.76634983225068,0.0,1.0
1623677413.5625,0,0,0.0,0.0,1.0
1623677414.03125,0,0,44.4866053539397,0.0,1.0
1623677414.5,0,0,0.0,0.0,1.0
1623677414.96875,0,0,4.974486345657216,0.0,1.0
1623677415.4375,0,0,0.0,0.0,1.0
1623677415.90625,0,0,93.04048073464308,0.0,1.0
1623677416.375,0,0,0.0,0.0,1.0
1623677416.84375,0,0,21.710657279975756,0.0,1.0
1623677417.3125,0,0,2.0548773987528817,0.0,1.0
1623677417.78125,0,0,74.9613633661444,0.0,1.0
1623677418.25,0,0,0.0,0.0,1.0
1623677418.71875,0,0,5.4722247556708545,0.0,1.0
1623677419.1875,0,0,0.0,0.0,1.0
1623677419.65625,0,0,119.60052801350575,0.0,1.0
1623677420.125,0,0,0.0,0.0,1.0
1623677420.59375,0,0,31.983898284702494,0.0,1.0
1623677421.0625,0,0,-10.404093798708807,0.0,1.0
1623677421.53125,0,0,0.0,0.0,1.0
1623677422.0,0,0,133.54681796249662,0.0,1.0
1623677422.46875,0,0,0.0,0.0,1.0
1623677422.9375,0,0,43.63048245357809,0.0,1.0
1623677423.40625,0,0,8.987587325366404,0.0,1.0
1623677423.875,0,0,48.06202084016679,0.0,1.0
1623677424.34375,0,0,18.68627559135961,0.0,1.0
1623677424.8125,0,0,17.70694374724179,0.0,1.0
1623677425.28125,0,0,0.0,0.0,1.0
1623677425.75,0,0,0.24062620061947304,0.0,1.0
1623677426.21875,0,0,7.0959416778287805,0.0,1.0
1623677426.6875,0,0,6.0060653721528015,0.0,1.0
1623677427.15625,0,0,4.7541146059918775,0.0,1.0
1623677427.625,0,0,1.0266607209493783,0.0,1.0
1623677428.09375,0,0,4.256609849382605,0.0,1.0
1623677428.5625,0,0,5.1701020100973984,0.0,1.0
1623677429.03125,0,0,6.87280722176029,0.0,1.0
1623677429.5,0,0,3.709846008532086,0.0,1.0
1623677429.96875,0,0,2.5735915953345234,0.0,1.0
1623677430.4375,0,0,9.222152299842216,0.0,1.0
1623677430.90625,0,0,3.231011351405984,0.0,1.0
1623677431.375,0,0,4.441928176954048,0.0,1.0
1623677431.84375,0,0,6.972047143911701,0.0,1.0
1623677432.3125,0,0,7.525616835419128,0.0,1.0
1623677432.78125,0,0,5.082337261971375,0.0,1.0
1623677433.25,0,0,2.6736357765691103,0.0,1.0
1623677433.71875,0,0,-0.33660693021718735,0.0,1.0
1623677434.1875,0,0,5.094250034754014,0.0,1.0
1623677434.65625,0,0,44.62315593535483,0.0,1.0
1623677435.125,0,0,0.0,0.0,1.0
1623677435.59375,0,0,17.158213499402944,0.0,1.0
1623677436.0625,0,0,0.0,0.0,1.0
1623677436.53125,0,0,0.0,0.0,1.0
1623677437.0,0,0,-9.914115526382751,0.0,1.0
1623677437.46875,0,0,9.40079458727471,0.0,1.0
1623677437.9375,0,0,0.0,0.0,1.0
1623677438.40625,0,0,189.87965636747677,0.0,1.0
1623677438.875,0,0,55.98667768321976,0.0,1.0
1623677439.34375,0,0,298.86297148613437,0.0,1.0
1623677439.8125,0,0,0.0,0.0,1.0
1623677440.28125,0,0,0.0,0.0,1.0
1623677440.75,0,0,168.3512613699897,0.0,1.0
1623677441.21875,0,0,0.0,0.0,1.0
1623677441.6875,0,0,5.0614264343711355,0.0,1.0
1623677442.15625,0,0,0.0,0.0,1.0
1623677442.625,0,0,43.931796502822735,0.0,1.0
1623677443.09375,0,0,0.421010590512966,0.0,1.0
1623677443.5625,0,0,6.186071133810794,0.0,1.0
1623677444.03125,0,0,19.578285309511912,0.0,1.0
1623677444.5,0,0,61.18716747367309,0.0,1.0
1623677444.96875,0,0,21.964227645191485,0.0,1.0
1623677445.4375,0,0,-6.866082010489774,0.0,1.0
1623677445.90625,0,0,0.0,0.0,1.0
1623677446.375,0,0,104.04717129654995,0.0,1.0
1623677446.84375,0,0,0.0,0.0,1.0
1623677447.3125,0,0,18.72289638039895,0.0,1.0
1623677447.78125,0,0,0.0,0.0,1.0
1623677448.25,0,0,181.9734238093444,0.0,1.0
1623677448.71875,0,0,0.0,0.0,1.0
1623677449.1875,0,0,28.877996578093764,0.0,1.0
1623677449.65625,0,0,2.2890366147552594,0.0,1.0
1623677450.125,0,0,163.61718660142824,0.0,1.0
1623677450.59375,0,0,0.0,0.0,1.0
1623677451.0625,0,0,31.980381078742116,0.0,1.0
1623677451.53125,0,0,0.0,0.0,1.0
1623677452.0,0,0,0.0,0.0,1.0
1623677452.46875,0,0,0.0,0.0,1.0
1623677452.9375,0,0,73.51762609248199,0.0,1.0
1623677453.40625,0,0,0.0,0.0,1.0
1623677453.875,0,0,0.0,0.0,1.0
1623677454.34375,0,0,115.55135434529109,0.0,1.0
1623677454.8125,0,0,0.0,0.0,1.0
1623677455.28125,0,0,0.0,0.0,1.0
1623677455.75,0,0,0.0,0.0,1.0
1623677456.21875,0,0,130.7274013280394,0.0,1.0
1623677456.6875,0,0,0.0,0.0,1.0
1623677457.15625,0,0,50.72652796210711,0.0,1.0
1623677457.625,0,0,15.29725430173871,0.0,1.0
1623677458.09375,0,0,56.096526449097645,0.0,1.0
1623677458.5625,0,0,14.734812161410328,0.0,1.0
1623677459.03125,0,0,7.083933544853271,0.0,1.0
1623677459.5,0,0,0.0,0.0,1.0
1623677459.96875,0,0,0.0,0.0,1.0
1623677460.4375,0,0,8.26640917703533,0.0,1.0
1623677460.90625,0,0,0.0,0.0,1.0
1623677461.375,0,0,0.0,0.0,1.0
1623677461.84375,0,0,89.87344008172687,0.0,1.0
1623677462.3125,0,0,9.493816333869713,0.0,1.0
1623677462.78125,0,0,10.044584213482977,0.0,1.0
1623677463.25,0,0,0.0,0.0,1.0
1623677463.71875,0,0,146.37091101708057,0.0,1.0
1623677464.1875,0,0,37.93567167953785,0.0,1.0
1623677464.65625,0,0,0.0,0.0,1.0
1623677465.125,0,0,0.0,0.0,1.0
1623677465.59375,0,0,176.5295846475271,0.0,1.0
1623677466.0625,0,0,0.0,0.0,1.0
1623677466.53125,0,0,30.51010660900729,0.0,1.0
1623677467.0,0,0,0.0,0.0,1.0
1623677467.46875,0,0,159.55361529088316,0.0,1.0
1623677467.9375,0,0,0.0,0.0,1.0
1623677468.40625,0,0,36.20578184734334,0.0,1.0
1623677468.875,0,0,3.1635590081726446,0.0,1.0
1623677469.34375,0,0,118.31101784440722,0.0,1.0
1623677469.8125,0,0,13.223756039344176,0.0,1.0
1623677470.28125,0,0,0.0,0.0,1.0
1623677470.75,0,0,3.5810986286017283,0.0,1.0
1623677471.21875,0,0,192.03545147511923,0.0,1.0
1623677471.6875,0,0,0.0,0.0,1.0
1623677472.15625,0,0,50.52495357579179,0.0,1.0
1623677472.625,0,0,0.0,0.0,1.0
1623677473.09375,0,0,112.31431457187459,0.0,1.0
1623677473.5625,0,0,0.0,0.0,1.0
1623677474.03125,0,0,0.0,0.0,1.0
1623677474.5,0,0,-21.51436645241976,0.0,1.0
1623677474.96875,0,0,190.41542859942922,0.0,1.0
1623677475.4375,0,0,0.0,0.0,1.0
1623677475.90625,0,0,70.13370533432887,0.0,1.0
1623677476.375,0,0,10.095364747890256,0.0,1.0
1623677476.84375,0,0,124.21528364537386,0.0,1.0
1623677477.3125,0,0,0.0,0.0,1.0
1623677477.78125,0,0,19.70602668412545,0.0,1.0
1623677478.25,0,0,-1.774462785843506,0.0,1.0
1623677478.71875,0,0,0.0,0.0,1.0
1623677479.1875,0,0,170.38032982220747,0.0,1.0
1623677479.65625,0,0,39.314942678302124,0.0,1.0
1623677480.125,0,0,2.7008216792890303,0.0,1.0
1623677480.59375,0,0,0.0,0.0,1.0
1623677481.0625,0,0,152.25134982211574,0.0,1.0
1623677481.53125,0,0,41.03185195815246,0.0,1.0
1623677482.0,0,0,39.589338786325115,0.0,1.0
1623677482.46875,0,0,0.0,0.0,1.0
1623677482.9375,0,0,18.46500037582939,0.0,1.0
1623677483.40625,0,0,0.0,0.0,1.0
1623677483.875,0,0,27.298280792980986,0.0,1.0
1623677484.34375,0,0,12.134484593068345,0.0,1.0
1623677484.8125,0,0,2.869977637476194,0.0,1.0
1623677485.28125,0,0,0.0,0.0,1.0
1623677485.75,0,0,0.0,0.0,1.0
1623677486.21875,0,0,95.79856835031875,0.0,1.0
1623677486.6875,0,0,-8.598492563718533,0.0,1.0
1623677487.15625,0,0,23.668548873868456,0.0,1.0
1623677487.625,0,0,44.67618774724595,0.0,1.0
1623677488.09375,0,0,0.0,0.0,1.0
1623677488.5625,0,0,5.471938996098916,0.0,1.0
1623677489.03125,0,0,5.818402664744952,0.0,1.0
1623677489.5,0,0,6.290081584442637,0.0,1.0
1623677489.96875,0,0,19.07802093428464,0.0,1.0
1623677490.4375,0,0,0.0,0.0,1.0
1623677490.90625,0,0,38.24103663844907,0.0,1.0
1623677491.375,0,0,0.0,0.0,1.0
1623677491.84375,0,0,148.901075264225,0.0,1.0
1623677492.3125,0,0,0.0,0.0,1.0
1623677492.78125,0,0,238.3420908802991,0.0,1.0
1623677493.25,0,0,0.0,0.0,1.0
1623677493.71875,0,0,48.16283514147348,0.0,1.0
1623677494.1875,0,0,-1.3876441249456513,0.0,1.0
1623677494.65625,0,0,0.0,0.0,1.0
1623677495.125,0,0,4.443842844285358,0.0,1.0
1623677495.59375,0,0,7.148851398122014,0.0,1.0
1623677496.0625,0,0,13.75032813170217,0.0,1.0
1623677496.53125,0,0,4.091602623543533,0.0,1.0
1623677497.0,0,0,-1.0563027594403194,0.0,1.0
1623677497.46875,0,0,-8.873126304906238,0.0,1.0
1623677497.9375,0,0,0.0,0.0,1.0
1623677498.40625,0,0,0.0,0.0,1.0
1623677498.875,0,0,32.150227234124905,0.0,1.0
1623677499.34375,0,0,0.0,0.0,1.0
1623677499.8125,0,0,85.68055409405171,0.0,1.0
1623677500.28125,0,0,-18.727280670811556,0.0,1.0
1623677500.75,0,0,21.970484763807644,0.0,1.0
1623677501.21875,0,0,11.02067980258564,0.0,1.0
1623677501.6875,0,0,84.82275336656964,0.0,1.0
1623677502.15625,0,0,0.0,0.0,1.0
1623677502.625,0,0,19.851735765242207,0.0,1.0
1623677503.09375,0,0,0.0,0.0,1.0
1623677503.5625,0,0,56.16282333803564,0.0,1.0
1623677504.03125,0,0,-6.322003227775668,0.0,1.0
1623677504.5,0,0,18.000386458305183,0.0,1.0
1623677504.96875,0,0,-1.6968654061793313,0.0,1.0
1623677505.4375,0,0,151.4897494451165,0.0,1.0
1623677505.90625,0,0,0.0,0.0,1.0
1623677506.375,0,0,40.38787191554226,0.0,1.0
1623677506.84375,0,0,35.148909327224814,0.0,1.0
1623677507.3125,0,0,55.89403016966806,0.0,1.0
1623677507.78125,0,0,0.0,0.0,1.0
1623677508.25,0,0,10.936034386195628,0.0,1.0
1623677508.71875,0,0,4.158009818432014,0.0,1.0
1623677509.1875,0,0,0.0,0.0,1.0
1623677509.65625,0,0,125.43533942776314,0.0,1.0
1623677510.125,0,0,42.77518129609117,0.0,1.0
1623677510.59375,0,0,1.6217365427824935,0.0,1.0
1623677511.0625,0,0,-1.2480042853297897,0.0,1.0
1623677511.53125,0,0,92.0309017903105,0.0,1.0
1623677512.0,0,0,25.037085496935834,0.0,1.0
1623677512.46875,0,0,18.17338440851088,0.0,1.0
1623677512.9375,0,0,0.0,0.0,1.0
1623677513.40625,0,0,134.4517245972749,0.0,1.0
1623677513.875,0,0,0.0,0.0,1.0
1623677514.34375,0,0,9.212950170901028,0.0,1.0
1623677514.8125,0,0,0.0,0.0,1.0
1623677515.28125,0,0,163.66323213658015,0.0,1.0
1623677515.75,0,0,52.03377108905238,0.0,1.0
1623677516.21875,0,0,0.0,0.0,1.0
1623677516.6875,0,0,82.88066872366998,0.0,1.0
1623677517.15625,0,0,105.49505263436663,0.0,1.0
1623677517.625,0,0,0.0,0.0,1.0
1623677518.09375,0,0,17.294486822930278,0.0,1.0
1623677518.5625,0,0,12.975173083485604,0.0,1.0
1623677519.03125,0,0,0.0,0.0,1.0
1623677519.5,0,0,134.6636417751912,0.0,1.0
1623677519.96875,0,0,34.86091553161662,0.0,1.0
1623677520.4375,0,0,0.0,0.0,1.0
1623677520.90625,0,0,25.60773614156548,0.0,1.0
1623677521.375,0,0,100.00972406108373,0.0,1.0
1623677521.84375,0,0,31.62370763416799,0.0,1.0
1623677522.3125,0,0,-5.654808597100566,0.0,1.0
1623677522.78125,0,0,-22.181625418067206,0.0,1.0
1623677523.25,0,0,193.51720499303096,0.0,1.0
1623677523.71875,0,0,0.0,0.0,1.0
1623677524.1875,0,0,138.4853977315962,0.0,1.0
1623677524.65625,0,0,0.0,0.0,1.0
1623677525.125,0,0,215.95757212684566,0.0,1.0
1623677525.59375,0,0,0.0,0.0,1.0
1623677526.0625,0,0,68.88550237661077,0.0,1.0
1623677526.53125,0,0,0.0,0.0,1.0
1623677527.0,0,0,118.35348888833154,0.0,1.0
1623677527.46875,0,0,0.0,0.0,1.0
1623677527.9375,0,0,34.60945358028634,0.0,1.0
1623677528.40625,0,0,0.0,0.0,1.0
1623677528.875,0,0,76.06383714111531,0.0,1.0
1623677529.34375,0,0,0.0,0.0,1.0
1623677529.8125,0,0,29.437338759001477,0.0,1.0
1623677530.28125,0,0,-0.909722199813983,0.0,1.0
1623677530.75,0,0,125.52449488662273,0.0,1.0
1623677531.21875,0,0,0.0,0.0,1.0
1623677531.6875,0,0,31.12606966999565,0.0,1.0
1623677532.15625,0,0,6.833696795003802,0.0,1.0
1623677532.625,0,0,0.0,0.0,1.0
1623677533.09375,0,0,197.6212745535951,0.0,1.0
1623677533.5625,0,0,0.0,0.0,1.0
1623677534.03125,0,0,74.57722486333323,0.0,1.0
1623677534.5,0,0,0.0,0.0,1.0
1623677534.96875,0,0,90.24638595008226,0.0,1.0
1623677535.4375,0,0,32.67900059337387,0.0,1.0
1623677535.90625,0,0,-2.6108425988326642,0.0,1.0
1623677536.375,0,0,-6.2914426356997115,0.0,1.0
1623677536.84375,0,0,129.61490686713168,0.0,1.0
1623677537.3125,0,0,0.0,0.0,1.0
1623677537.78125,0,0,35.58545897181282,0.0,1.0
1623677538.25,0,0,-0.5292657025986923,0.0,1.0
1623677538.71875,0,0,0.0,0.0,1.0
1623677539.1875,0,0,102.5919711477323,0.0,1.0
1623677539.65625,0,0,34.20454082428619,0.0,1.0
1623677540.125,0,0,23.379406931804837,0.0,1.0
1623677540.59375,0,0,3.0492869502332893,0.0,1.0
1623677541.0625,0,0,0.0,0.0,1.0
1623677541.53125,0,0,3.028423268885798,0.0,1.0
1623677542.0,0,0,11.479109837982465,0.0,1.0
1623677542.46875,0,0,6.513711100228953,0.0,1.0
1623677542.9375,0,0,6.080537271866317,0.0,1.0
1623677543.40625,0,0,0.48991972122359184,0.0,1.0
1623677543.875,0,0,6.808361384445467,0.0,1.0
1623677544.34375,0,0,7.200682184429875,0.0,1.0
1623677544.8125,0,0,8.404478637578197,0.0,1.0
1623677545.28125,0,0,14.189441574137692,0.0,1.0
1623677545.75,0,0,3.0213719407200776,0.0,1.0
1623677546.21875,0,0,4.737332000781974,0.0,1.0
1623677546.6875,0,0,3.3008992281283325,0.0,1.0
1623677547.15625,0,0,6.364616377340427,0.0,1.0
1623677547.625,0,0,10.387150473182373,0.0,1.0
1623677548.09375,0,0,7.661935616641213,0.0,1.0
1623677548.5625,0,0,6.519880110010553,0.0,1.0
1623677549.03125,0,0,5.373006422844378,0.0,1.0
1623677549.5,0,0,7.794028529124428,0.0,1.0
1623677549.96875,0,0,5.6613217885852976,0.0,1.0
1623677550.4375,0,0,4.56422615471658,0.0,1.0
1623677550.90625,0,0,5.101334163933768,0.0,1.0
1623677551.375,0,0,8.599263373120372,0.0,1.0
1623677551.84375,0,0,1.717342701408535,0.0,1.0
1623677552.3125,0,0,5.3622816085628315,0.0,1.0
1623677552.78125,0,0,7.143748927367526,0.0,1.0
1623677553.25,0,0,6.530558842525723,0.0,1.0
1623677553.71875,0,0,6.027629903342567,0.0,1.0
1623677554.1875,0,0,11.703952993742417,0.0,1.0
1623677554.65625,0,0,0.0,0.0,1.0
1623677555.125,0,0,-3.5837819882391106,0.0,1.0
1623677555.59375,0,0,0.4775341995117278,0.0,1.0
1623677556.0625,0,0,90.87706962658255,0.0,1.0
1623677556.53125,0,0,0.0,0.0,1.0
1623677557.0,0,0,14.359363121831727,0.0,1.0
1623677557.46875,0,0,0.0,0.0,1.0
1623677557.9375,0,0,123.87904401310718,0.0,1.0
1623677558.40625,0,0,0.0,0.0,1.0
1623677558.875,0,0,32.818249196650605,0.0,1.0
1623677559.34375,0,0,0.0,0.0,1.0
1623677559.8125,0,0,85.25313916781869,0.0,1.0
1623677560.28125,0,0,0.0,0.0,1.0
1623677560.75,0,0,22.237041347153532,0.0,1.0
1623677561.21875,0,0,0.0,0.0,1.0
1623677561.6875,0,0,0.0,0.0,1.0
1623677562.15625,0,0,0.0,0.0,1.0
1623677562.625,0,0,35.385966416352694,0.0,1.0
1623677563.09375,0,0,-4.368769224526055,0.0,1.0
1623677563.5625,0,0,-13.997337961036905,0.0,1.0
1623677564.03125,0,0,225.0045600633017,0.0,1.0
1623677564.5,0,0,53.865799558198,0.0,1.0
1623677564.96875,0,0,14.629805884641028,0.0,1.0
1623677565.4375,0,0,-13.926892791306637,0.0,1.0
1623677565.90625,0,0,209.38462650993995,0.0,1.0
1623677566.375,0,0,0.0,0.0,1.0
1623677566.84375,0,0,47.622310849176685,0.0,1.0
1623677567.3125,0,0,0.0,0.0,1.0
1623677567.78125,0,0,135.15512126439006,0.0,1.0
1623677568.25,0,0,35.83826503104772,0.0,1.0
1623677568.71875,0,0,0.0,0.0,1.0
1623677569.1875,0,0,-14.495870823392659,0.0,1.0
1623677569.65625,0,0,131.18669389830265,0.0,1.0
1623677570.125,0,0,0.0,0.0,1.0
1623677570.59375,0,0,76.01162069133106,0.0,1.0
1623677571.0625,0,0,0.0,0.0,1.0
1623677571.53125,0,0,101.22061668553725,0.0,1.0
1623677572.0,0,0,0.0,0.0,1.0
1623677572.46875,0,0,31.036846197762376,0.0,1.0
1623677572.9375,0,0,0.0,0.0,1.0
1623677573.40625,0,0,0.0,0.0,1.0
1623677573.875,0,0,231.96518550340605,0.0,1.0
1623677574.34375,0,0,0.0,0.0,1.0
1623677574.8125,0,0,80.19508037100248,0.0,1.0
1623677575.28125,0,0,11.051222687676901,0.0,1.0
1623677575.75,0,0,93.57991713581323,0.0,1.0
1623677576.21875,0,0,31.196068743122648,0.0,1.0
1623677576.6875,0,0,-0.5549492615076457,0.0,1.0
1623677577.15625,0,0,0.0,0.0,1.0
1623677577.625,0,0,0.0,0.0,1.0
1623677578.09375,0,0,192.59970677871488,0.0,1.0
1623677578.5625,0,0,35.15300922105484,0.0,1.0
1623677579.03125,0,0,21.649513680642634,0.0,1.0
1623677579.5,0,0,158.3018800672399,0.0,1.0
1623677579.96875,0,0,0.0,0.0,1.0
1623677580.4375,0,0,25.80432527120212,0.0,1.0
1623677580.90625,0,0,14.558698979389824,0.0,1.0
1623677581.375,0,0,130.49937887282132,0.0,1.0
1623677581.84375,0,0,0.0,0.0,1.0
1623677582.3125,0,0,26.214285440521305,0.0,1.0
1623677582.78125,0,0,0.0,0.0,1.0
1623677583.25,0,0,0.0,0.0,1.0
1623677583.71875,0,0,127.56903785908254,0.0,1.0
1623677584.1875,0,0,37.025233309811966,0.0,1.0
1623677584.65625,0,0,0.0,0.0,1.0
1623677585.125,0,0,0.0,0.0,1.0
1623677585.59375,0,0,120.1492023859225,0.0,1.0
1623677586.0625,0,0,35.20498301715147,0.0,1.0
1623677586.53125,0,0,-23.738999451386267,0.0,1.0
1623677587.0,0,0,-29.235616177453075,0.0,1.0
1623677587.46875,0,0,250.25570965976556,0.0,1.0
1623677587.9375,0,0,0.0,0.0,1.0
1623677588.40625,0,0,68.65742458269685,0.0,1.0
1623677588.875,0,0,0.0,0.0,1.0
1623677589.34375,0,0,186.84275657523787,0.0,1.0
1623677589.8125,0,0,0.0,0.0,1.0
1623677590.28125,0,0,66.29928582150586,0.0,1.0
1623677590.75,0,0,-2.43560656663293,0.0,1.0
1623677591.21875,0,0,0.0,0.0,1.0
1623677591.6875,0,0,95.69986690304464,0.0,1.0
1623677592.15625,0,0,0.0,0.0,1.0
1623677592.625,0,0,49.42602517740622,0.0,1.0
1623677593.09375,0,0,0.0,0.0,1.0
1623677593.5625,0,0,111.9695864333815,0.0,1.0
1623677594.03125,0,0,0.0,0.0,1.0
1623677594.5,0,0,26.196884753900587,0.0,1.0
1623677594.96875,0,0,2.565521760642189,0.0,1.0
1623677595.4375,0,0,156.11122872878653,0.0,1.0
1623677595.90625,0,0,0.0,0.0,1.0
1623677596.375,0,0,26.749784316007666,0.0,1.0
1623677596.84375,0,0,0.0,0.0,1.0
1623677597.3125,0,0,0.0,0.0,1.0
1623677597.78125,0,0,218.71181965823172,0.0,1.0
1623677598.25,0,0,76.38805413168392,0.0,1.0
1623677598.71875,0,0,34.552491911992966,0.0,1.0
1623677599.1875,0,0,1.3029890072222916,0.0,1.0
1623677599.65625,0,0,0.0,0.0,1.0
1623677600.125,0,0,3.86580101422079,0.0,1.0
1623677600.59375,0,0,14.555088057570797,0.0,1.0
1623677601.0625,0,0,19.38940242379247,0.0,1.0
1623677601.53125,0,0,0.0,0.0,1.0
1623677602.0,0,0,12.636119038997258,0.0,1.0
1623677602.46875,0,0,4.68801585124329,0.0,1.0
1623677602.9375,0,0,4.339455107871326,0.0,1.0
1623677603.40625,0,0,15.284619614574764,0.0,1.0
1623677603.875,0,0,6.7887939611076575,0.0,1.0
1623677604.34375,0,0,7.529148647836725,0.0,1.0
1623677604.8125,0,0,5.06387588961884,0.0,1.0
1623677605.28125,0,0,5.013876529678601,0.0,1.0
1623677605.75,0,0,4.617000395141024,0.0,1.0
1623677606.21875,0,0,8.820650832116591,0.0,1.0
1623677606.6875,0,0,5.922181519502937,0.0,1.0
1623677607.15625,0,0,3.8688349868241634,0.0,1.0
1623677607.625,0,0,9.568566035144402,0.0,1.0
1623677608.09375,0,0,-0.7001460074513676,0.0,1.0
1623677608.5625,0,0,6.754621754929803,0.0,1.0
1623677609.03125,0,0,10.348617706881846,0.0,1.0
1623677609.5,0,0,6.215930237897925,0.0,1.0
1623677609.96875,0,0,6.016767600799179,0.0,1.0
1623677610.4375,0,0,5.1516931869573614,0.0,1.0
1623677610.90625,0,0,4.2975679427332025,0.0,1.0
1623677611.375,0,0,-2.8300439532006814,0.0,1.0
1623677611.84375,0,0,20.8460844951804,0.0,1.0
1623677612.3125,0,0,0.0,0.0,1.0
1623677612.78125,0,0,30.44869267988524,0.0,1.0
1623677613.25,0,0,7.310363890336171,0.0,1.0
1623677613.71875,0,0,-10.926757546127481,0.0,1.0
1623677614.1875,0,0,-14.87321989915589,0.0,1.0
1623677614.65625,0,0,143.09574936067582,0.0,1.0
1623677615.125,0,0,0.0,0.0,1.0
1623677615.59375,0,0,36.51711340334804,0.0,1.0
1623677616.0625,0,0,0.0,0.0,1.0
1623677616.53125,0,0,116.77267536158145,0.0,1.0
1623677617.0,0,0,7.210978549752543,0.0,1.0
1623677617.46875,0,0,7.016523235700823,0.0,1.0
1623677617.9375,0,0,158.696393506083,0.0,1.0
1623677618.40625,0,0,0.0,0.0,1.0
1623677618.875,0,0,24.56928908112416,0.0,1.0
1623677619.34375,0,0,4.638051776190946,0.0,1.0
1623677619.8125,0,0,0.0,0.0,1.0
1623677620.28125,0,0,0.0,0.0,1.0
1623677620.75,0,0,25.313082115854844,0.0,1.0
1623677621.21875,0,0,0.0,0.0,1.0
1623677621.6875,0,0,0.0,0.0,1.0
1623677622.15625,0,0,160.31140746900653,0.0,1.0
1623677622.625,0,0,38.47924822516972,0.0,1.0
1623677623.09375,0,0,-2.205352897769342,0.0,1.0
1623677623.5625,0,0,0.0,0.0,1.0
1623677624.03125,0,0,171.35930493195576,0.0,1.0
1623677624.5,0,0,38.58524107955038,0.0,1.0
1623677624.96875,0,0,0.0,0.0,1.0
1623677625.4375,0,0,0.0,0.0,1.0
1623677625.90625,0,0,149.24784365924594,0.0,1.0
1623677626.375,0,0,0.0,0.0,1.0
1623677626.84375,0,0,39.23048011364268,0.0,1.0
1623677627.3125,0,0,0.0,0.0,1.0
1623677627.78125,0,0,180.4818204404913,0.0,1.0
1623677628.25,0,0,0.0,0.0,1.0
1623677628.71875,0,0,41.46052772535915,0.0,1.0
1623677629.1875,0,0,-6.38821784121289,0.0,1.0
1623677629.65625,0,0,0.0,0.0,1.0
1623677630.125,0,0,155.58047247549754,0.0,1.0
1623677630.59375,0,0,33.87873571540168,0.0,1.0
1623677631.0625,0,0,-19.71240486995083,0.0,1.0
1623677631.53125,0,0,0.0,0.0,1.0
1623677632.0,0,0,245.36093231357162,0.0,1.0
1623677632.46875,0,0,0.0,0.0,1.0
1623677632.9375,0,0,0.0,0.0,1.0
1623677633.40625,0,0,12.019188790408561,0.0,1.0
1623677633.875,0,0,168.62946515244928,0.0,1.0
1623677634.34375,0,0,41.69705172375364,0.0,1.0
1623677634.8125,0,0,0.0,0.0,1.0
1623677635.28125,0,0,-2.664302087101541,0.0,1.0
1623677635.75,0,0,154.99689622780323,0.0,1.0
1623677636.21875,0,0,0.0,0.0,1.0
1623677636.6875,0,0,39.72257656460131,0.0,1.0
1623677637.15625,0,0,0.0,0.0,1.0
1623677637.625,0,0,129.77658803511864,0.0,1.0
1623677638.09375,0,0,0.0,0.0,1.0
1623677638.5625,0,0,33.84918472651334,0.0,1.0
1623677639.03125,0,0,0.0,0.0,1.0
1623677639.5,0,0,251.2760066855371,0.0,1.0
1623677639.96875,0,0,0.0,0.0,1.0
1623677640.4375,0,0,58.05492121702843,0.0,1.0
1623677640.90625,0,0,22.724102980002186,0.0,1.0
1623677641.375,0,0,69.9263615308042,0.0,1.0
1623677641.84375,0,0,-8.677140683971645,0.0,1.0
1623677642.3125,0,0,26.155932255088775,0.0,1.0
1623677642.78125,0,0,0.0,0.0,1.0
1623677643.25,0,0,177.49337678316144,0.0,1.0
1623677643.71875,0,0,0.0,0.0,1.0
1623677644.1875,0,0,28.686848625115644,0.0,1.0
1623677644.65625,0,0,11.142866938820461,0.0,1.0
1623677645.125,0,0,0.0,0.0,1.0
1623677645.59375,0,0,140.09907344640308,0.0,1.0
1623677646.0625,0,0,28.5267990651521,0.0,1.0
1623677646.53125,0,0,10.465712987896815,0.0,1.0
1623677647.0,0,0,0.0,0.0,1.0
1623677647.46875,0,0,181.99756943851182,0.0,1.0
1623677647.9375,0,0,34.59290609947069,0.0,1.0
1623677648.40625,0,0,36.35960118033181,0.0,1.0
1623677648.875,0,0,0.0,0.0,1.0
1623677649.34375,0,0,0.0,0.0,1.0
1623677649.8125,0,0,166.34643281170494,0.0,1.0
1623677650.28125,0,0,22.127567099145374,0.0,1.0
1623677650.75,0,0,13.137818754950366,0.0,1.0
1623677651.21875,0,0,5.0715034422465815,0.0,1.0
1623677651.6875,0,0,152.8328885761256,0.0,1.0
1623677652.15625,0,0,18.477542172108375,0.0,1.0
1623677652.625,0,0,6.977472568459618,0.0,1.0
1623677653.09375,0,0,0.0,0.0,1.0
1623677653.5625,0,0,211.11786524289636,0.0,1.0
1623677654.03125,0,0,0.0,0.0,1.0
1623677654.5,0,0,47.05513567177932,0.0,1.0
1623677654.96875,0,0,0.0,0.0,1.0
1623677655.4375,0,0,123.26032212546704,0.0,1.0
1623677655.90625,0,0,35.81751584774446,0.0,1.0
1623677656.375,0,0,29.917415379390526,0.0,1.0
1623677656.84375,0,0,0.0,0.0,1.0
1623677657.3125,0,0,0.0,0.0,1.0
1623677657.78125,0,0,7.954277153092155,0.0,1.0
1623677658.25,0,0,10.355784928928024,0.0,1.0
1623677658.71875,0,0,7.193871515188763,0.0,1.0
1623677659.1875,0,0,0.7674240052620773,0.0,1.0
1623677659.65625,0,0,2.1812945414242537,0.0,1.0
1623677660.125,0,0,11.819694290203506,0.0,1.0
1623677660.59375,0,0,7.456728472451589,0.0,1.0
1623677661.0625,0,0,10.951047035256158,0.0,1.0
1623677661.53125,0,0,5.095660376546334,0.0,1.0
1623677662.0,0,0,0.2511232761127859,0.0,1.0
1623677662.46875,0,0,7.131607546919585,0.0,1.0
1623677662.9375,0,0,6.19909845403115,0.0,1.0
1623677663.40625,0,0,9.711411123244726,0.0,1.0
1623677663.875,0,0,-1.3066551857680588,0.0,1.0
1623677664.34375,0,0,12.88233601497392,0.0,1.0
1623677664.8125,0,0,0.0,0.0,1.0
1623677665.28125,0,0,0.0,0.0,1.0
1623677665.75,0,0,7.471566062438009,0.0,1.0
1623677666.21875,0,0,8.798443348065202,0.0,1.0
1623677666.6875,0,0,0.6517481721857336,0.0,1.0
1623677667.15625,0,0,10.82009843201583,0.0,1.0
1623677667.625,0,0,3.5418452271965846,0.0,1.0
1623677668.09375,0,0,6.929298801916121,0.0,1.0
1623677668.5625,0,0,7.345309088582099,0.0,1.0
1623677669.03125,0,0,5.812694896730048,0.0,1.0
1623677669.5,0,0,-0.22419999143190236,0.0,1.0
1623677669.96875,0,0,7.69298184670509,0.0,1.0
1623677670.4375,0,0,13.975632677077233,0.0,1.0
1623677670.90625,0,0,2.972403491950647,0.0,1.0
1623677671.375,0,0,0.0,0.0,1.0
1623677671.84375,0,0,0.0,0.0,1.0
1623677672.3125,0,0,181.28222900133656,0.0,1.0
1623677672.78125,0,0,0.0,0.0,1.0
1623677673.25,0,0,25.294364258072324,0.0,1.0
1623677673.71875,0,0,0.0,0.0,1.0
1623677674.1875,0,0,142.48882349170293,0.0,1.0
1623677674.65625,0,0,0.0,0.0,1.0
1623677675.125,0,0,33.33098677482767,0.0,1.0
1623677675.59375,0,0,-0.9457254827591582,0.0,1.0
1623677676.0625,0,0,147.3719808410783,0.0,1.0
1623677676.53125,0,0,0.0,0.0,1.0
1623677677.0,0,0,32.897851825702574,0.0,1.0
1623677677.46875,0,0,0.0,0.0,1.0
1623677677.9375,0,0,0.0,0.0,1.0
1623677678.40625,0,0,251.71168385157318,0.0,1.0
1623677678.875,0,0,0.0,0.0,1.0
1623677679.34375,0,0,75.69666234464951,0.0,1.0
1623677679.8125,0,0,0.0,0.0,1.0
1623677680.28125,0,0,120.25947433574943,0.0,1.0
1623677680.75,0,0,0.0,0.0,1.0
1623677681.21875,0,0,37.43153029103349,0.0,1.0
1623677681.6875,0,0,0.0,0.0,1.0
1623677682.15625,0,0,146.46818401315912,0.0,1.0
1623677682.625,0,0,0.0,0.0,1.0
1623677683.09375,0,0,0.0,0.0,1.0
1623677683.5625,0,0,0.0,0.0,1.0
1623677684.03125,0,0,0.0,0.0,1.0
1623677684.5,0,0,239.73723889503648,0.0,1.0
1623677684.96875,0,0,57.54907144453966,0.0,1.0
1623677685.4375,0,0,0.0,0.0,1.0
1623677685.90625,0,0,0.0,0.0,1.0
1623677686.375,0,0,199.77787171140693,0.0,1.0
1623677686.84375,0,0,0.0,0.0,1.0
1623677687.3125,0,0,58.5200654908932,0.0,1.0
1623677687.78125,0,0,53.49643710892301,0.0,1.0
1623677688.25,0,0,86.9870815117397,0.0,1.0
1623677688.71875,0,0,22.591140837931533,0.0,1.0
1623677689.1875,0,0,16.36501182996083,0.0,1.0
1623677689.65625,0,0,0.0,0.0,1.0
1623677690.125,0,0,148.33900745855044,0.0,1.0
1623677690.59375,0,0,34.176225108834664,0.0,1.0
1623677691.0625,0,0,0.0,0.0,1.0
1623677691.53125,0,0,0.0,0.0,1.0
1623677692.0,0,0,225.21259366462007,0.0,1.0
1623677692.46875,0,0,0.0,0.0,1.0
1623677692.9375,0,0,47.317576067040704,0.0,1.0
1623677693.40625,0,0,10.810970371678142,0.0,1.0
1623677693.875,0,0,135.4027917049789,0.0,1.0
1623677694.34375,0,0,36.97133401432768,0.0,1.0
1623677694.8125,0,0,25.502886699952803,0.0,1.0
1623677695.28125,0,0,-15.932531776904385,0.0,1.0
1623677695.75,0,0,211.1567971543044,0.0,1.0
1623677696.21875,0,0,0.0,0.0,1.0
1623677696.6875,0,0,42.947350520519805,0.0,1.0
1623677697.15625,0,0,7.860540743509982,0.0,1.0
1623677697.625,0,0,0.0,0.0,1.0
1623677698.09375,0,0,183.74302884433956,0.0,1.0
1623677698.5625,0,0,0.0,0.0,1.0
1623677699.03125,0,0,0.0,0.0,1.0
1623677699.5,0,0,0.0,0.0,1.0
1623677699.96875,0,0,198.18264822628174,0.0,1.0
1623677700.4375,0,0,52.966453373461114,0.0,1.0
1623677700.90625,0,0,6.032285028950548,0.0,1.0
1623677701.375,0,0,0.0,0.0,1.0
1623677701.84375,0,0,138.67738189182165,0.0,1.0
1623677702.3125,0,0,25.29418734597478,0.0,1.0
1623677702.78125,0,0,15.462117549471051,0.0,1.0
1623677703.25,0,0,0.0,0.0,1.0
1623677703.71875,0,0,125.63494992445948,0.0,1.0
1623677704.1875,0,0,-17.928700129527268,0.0,1.0
1623677704.65625,0,0,26.680606630365972,0.0,1.0
1623677705.125,0,0,-0.22565872883793975,0.0,1.0
1623677705.59375,0,0,160.11244547232468,0.0,1.0
1623677706.0625,0,0,0.0,0.0,1.0
1623677706.53125,0,0,33.62583156850786,0.0,1.0
1623677707.0,0,0,0.0,0.0,1.0
1623677707.46875,0,0,0.0,0.0,1.0
1623677707.9375,0,0,113.39129485060215,0.0,1.0
1623677708.40625,0,0,36.23244681541507,0.0,1.0
1623677708.875,0,0,1.8003706892492863,0.0,1.0
1623677709.34375,0,0,0.0,0.0,1.0
1623677709.8125,0,0,124.95142809023318,0.0,1.0
1623677710.28125,0,0,43.73696942984697,0.0,1.0
1623677710.75,0,0,-11.884121412086301,0.0,1.0
1623677711.21875,0,0,-27.28607426077476,0.0,1.0
1623677711.6875,0,0,220.5049732328642,0.0,1.0
1623677712.15625,0,0,0.0,0.0,1.0
1623677712.625,0,0,61.85867681002785,0.0,1.0
1623677713.09375,0,0,0.0,0.0,1.0
1623677713.5625,0,0,130.92780746245273,0.0,1.0
1623677714.03125,0,0,0.0,0.0,1.0
1623677714.5,0,0,40.165161033978855,0.0,1.0
1623677714.96875,0,0,0.0,0.0,1.0
1623677715.4375,0,0,-6.114763950388147,0.0,1.0
1623677715.90625,0,0,-1.777501191088522,0.0,1.0
1623677716.375,0,0,10.145170161556194,0.0,1.0
1623677716.84375,0,0,9.691134423026266,0.0,1.0
1623677717.3125,0,0,4.1771601174532575,0.0,1.0
1623677717.78125,0,0,5.666577413120557,0.0,1.0
1623677718.25,0,0,0.9535051641030206,0.0,1.0
1623677718.71875,0,0,5.258874632666449,0.0,1.0
1623677719.1875,0,0,8.798969004219108,0.0,1.0
1623677719.65625,0,0,4.195036356263242,0.0,1.0
1623677720.125,0,0,-0.1990287066909214,0.0,1.0
1623677720.59375,0,0,6.185052298930533,0.0,1.0
1623677721.0625,0,0,10.435032008645331,0.0,1.0
1623677721.53125,0,0,4.355477971860954,0.0,1.0
1623677722.0,0,0,3.757879518158901,0.0,1.0
1623677722.46875,0,0,9.68196614360147,0.0,1.0
1623677722.9375,0,0,8.906346935388278,0.0,1.0
1623677723.40625,0,0,5.685331783681244,0.0,1.0
1623677723.875,0,0,4.068576501040081,0.0,1.0
1623677724.34375,0,0,13.723408532470119,0.0,1.0
1623677724.8125,0,0,4.239611780484263,0.0,1.0
1623677725.28125,0,0,6.1830289811368875,0.0,1.0
1623677725.75,0,0,9.453295489634696,0.0,1.0
1623677726.21875,0,0,15.660530669300785,0.0,1.0
1623677726.6875,0,0,11.704806296959298,0.0,1.0
1623677727.15625,0,0,-23.94248051944604,0.0,2.0
1623677727.625,0,0,-19.54394745305821,0.0,2.0
1623677728.09375,0,0,166.4587101061295,0.0,2.0
1623677728.5625,0,0,-39.81109762338661,0.0,2.0
1623677729.03125,0,0,80.64483143752526,0.0,2.0
1623677729.5,0,0,0.0,0.0,2.0
1623677729.96875,0,0,109.78899190315495,0.0,2.0
1623677730.4375,0,0,344.01114399189265,0.0,2.0
1623677730.90625,0,0,0.0,0.0,2.0
1623677731.375,0,0,0.0,0.0,2.0
1623677731.84375,0,0,593.4590319201035,0.0,2.0
1623677732.3125,0,0,0.0,0.0,2.0
1623677732.78125,0,0,120.3124506118178,0.0,2.0
1623677733.25,0,0,104.28810250995623,0.0,2.0
1623677733.71875,0,0,11.071439634274599,0.0,2.0
1623677734.1875,0,0,11.034827012123259,0.0,2.0
1623677734.65625,0,0,9.338750549616362,0.0,2.0
1623677735.125,0,0,7.268538387461111,0.0,2.0
1623677735.59375,0,0,29.10939388497016,0.0,2.0
1623677736.0625,0,0,23.64207922380035,0.0,2.0
1623677736.53125,0,0,-1.4999434048035696,0.0,2.0
1623677737.0,0,0,69.10638861317206,0.0,2.0
1623677737.46875,0,0,-27.062359752953473,0.0,2.0
1623677737.9375,0,0,-36.64415098747256,0.0,2.0
1623677738.40625,0,0,72.67174253594483,0.0,2.0
1623677738.875,0,0,84.5255471797604,0.0,2.0
1623677739.34375,0,0,0.0,0.0,2.0
1623677739.8125,0,0,63.89867261947708,0.0,2.0
1623677740.28125,0,0,11.892742409601999,0.0,2.0
1623677740.75,0,0,-8.910194748105095,0.0,2.0
1623677741.21875,0,0,6.390096383590333,0.0,2.0
1623677741.6875,0,0,23.34558039640132,0.0,2.0
1623677742.15625,0,0,9.43349483927277,0.0,2.0
1623677742.625,0,0,8.313767720946451,0.0,2.0
1623677743.09375,0,0,8.48234213053514,0.0,2.0
1623677743.5625,0,0,11.024346529789803,0.0,2.0
1623677744.03125,0,0,4.472189148537476,0.0,2.0
1623677744.5,0,0,5.882055575045567,0.0,2.0
1623677744.96875,0,0,7.693532576732294,0.0,2.0
1623677745.4375,0,0,9.019794935871941,0.0,2.0
1623677745.90625,0,0,10.76837178610253,0.0,2.0
1623677746.375,0,0,2.2534216609293756,0.0,2.0
1623677746.84375,0,0,4.393368097775752,0.0,2.0
1623677747.3125,0,0,9.325702809143644,0.0,2.0
1623677747.78125,0,0,8.300211020750956,0.0,2.0
1623677748.25,0,0,9.175276652670549,0.0,2.0
1623677748.71875,0,0,3.97796283711681,0.0,2.0
1623677749.1875,0,0,5.900488855266013,0.0,2.0
1623677749.65625,0,0,9.780657867211561,0.0,2.0
1623677750.125,0,0,7.658844849743127,0.0,2.0
1623677750.59375,0,0,9.950497136628636,0.0,2.0
1623677751.0625,0,0,6.278233456957222,0.0,2.0
1623677751.53125,0,0,4.275108801853783,0.0,2.0
1623677752.0,0,0,8.427605560374547,0.0,2.0
1623677752.46875,0,0,6.003250063743116,0.0,2.0
1623677752.9375,0,0,7.871079651910128,0.0,2.0
1623677753.40625,0,0,12.498303117579828,0.0,2.0
1623677753.875,0,0,5.431527280762194,0.0,2.0
1623677754.34375,0,0,5.322692619843486,0.0,2.0
1623677754.8125,0,0,4.967810227442522,0.0,2.0
1623677755.28125,0,0,41.398620709188016,0.0,2.0
1623677755.75,0,0,-4.951027390046711,0.0,2.0
1623677756.21875,0,0,0.0,0.0,2.0
1623677756.6875,0,0,41.77703380592218,0.0,2.0
1623677757.15625,0,0,0.0,0.0,2.0
1623677757.625,0,0,8.374535867113925,0.0,2.0
1623677758.09375,0,0,0.2822400019586707,0.0,2.0
1623677758.5625,0,0,11.061441551017703,0.0,2.0
1623677759.03125,0,0,28.971174633352835,0.0,2.0
1623677759.5,0,0,-7.7696943903507,0.0,2.0
1623677759.96875,0,0,0.0,0.0,2.0
1623677760.4375,0,0,65.60181241556148,0.0,2.0
1623677760.90625,0,0,-17.957890762299037,0.0,2.0
1623677761.375,0,0,10.619137920279524,0.0,2.0
1623677761.84375,0,0,0.0,0.0,2.0
1623677762.3125,0,0,146.53813179017135,0.0,2.0
1623677762.78125,0,0,0.0,0.0,2.0
1623677763.25,0,0,0.0,0.0,2.0
1623677763.71875,0,0,70.3814823141729,0.0,2.0
1623677764.1875,0,0,0.356651603201319,0.0,2.0
1623677764.65625,0,0,-5.703339109530319,0.0,2.0
1623677765.125,0,0,1.273826975671069,0.0,2.0
1623677765.59375,0,0,16.02488478340475,0.0,2.0
1623677766.0625,0,0,14.089124261653179,0.0,2.0
1623677766.53125,0,0,5.531063216462515,0.0,2.0
1623677767.0,0,0,6.8803815981013825,0.0,2.0
1623677767.46875,0,0,8.895855387987757,0.0,2.0
1623677767.9375,0,0,10.072593946346856,0.0,2.0
1623677768.40625,0,0,10.309150779329665,0.0,2.0
1623677768.875,0,0,8.299885248024491,0.0,2.0
1623677769.34375,0,0,2.4826821878470944,0.0,2.0
1623677769.8125,0,0,10.485835197827848,0.0,2.0
1623677770.28125,0,0,6.207029542803309,0.0,2.0
1623677770.75,0,0,6.947528385000621,0.0,2.0
1623677771.21875,0,0,9.839000894216209,0.0,2.0
1623677771.6875,0,0,7.001115653453923,0.0,2.0
1623677772.15625,0,0,0.7363422293455602,0.0,2.0
1623677772.625,0,0,10.214756017148405,0.0,2.0
1623677773.09375,0,0,6.201897031419307,0.0,2.0
1623677773.5625,0,0,8.035619290536662,0.0,2.0
1623677774.03125,0,0,7.269924443811256,0.0,2.0
1623677774.5,0,0,9.304400458824418,0.0,2.0
1623677774.96875,0,0,2.871486617213998,0.0,2.0
1623677775.4375,0,0,6.785610231012249,0.0,2.0
1623677775.90625,0,0,9.145316493253105,0.0,2.0
1623677776.375,0,0,9.155182658130192,0.0,2.0
1623677776.84375,0,0,9.037169041351689,0.0,2.0
1623677777.3125,0,0,6.07452773562676,0.0,2.0
1623677777.78125,0,0,9.013661543176045,0.0,2.0
1623677778.25,0,0,8.059534896605676,0.0,2.0
1623677778.71875,0,0,8.359810556347606,0.0,2.0
1623677779.1875,0,0,10.33329184552766,0.0,2.0
1623677779.65625,0,0,3.9000894147409197,0.0,2.0
1623677780.125,0,0,9.890012899430285,0.0,2.0
1623677780.59375,0,0,10.13744675394696,0.0,2.0
1623677781.0625,0,0,8.981147856739533,0.0,2.0
1623677781.53125,0,0,7.543353084498896,0.0,2.0
1623677782.0,0,0,11.913237131980447,0.0,2.0
1623677782.46875,0,0,0.0,0.0,2.0
1623677782.9375,0,0,8.19600731337122,0.0,2.0
1623677783.40625,0,0,10.435817676373615,0.0,2.0
1623677783.875,0,0,7.733361623047485,0.0,2.0
1623677784.34375,0,0,9.681468691867792,0.0,2.0
1623677784.8125,0,0,5.381681164562622,0.0,2.0
1623677785.28125,0,0,8.622223942170738,0.0,2.0
1623677785.75,0,0,8.624012731972625,0.0,2.0
1623677786.21875,0,0,8.373432415724194,0.0,2.0
1623677786.6875,0,0,8.126206791619165,0.0,2.0
1623677787.15625,0,0,5.5405720868700605,0.0,2.0
1623677787.625,0,0,10.150181976499352,0.0,2.0
1623677788.09375,0,0,6.428683619558116,0.0,2.0
1623677788.5625,0,0,10.533948419673429,0.0,2.0
1623677789.03125,0,0,8.259211524386934,0.0,2.0
1623677789.5,0,0,4.199483066602259,0.0,2.0
1623677789.96875,0,0,3.2472811107411577,0.0,2.0
1623677790.4375,0,0,9.086767999427353,0.0,2.0
1623677790.90625,0,0,1.90288876037459,0.0,2.0
1623677791.375,0,0,10.534019213634735,0.0,2.0
1623677791.84375,0,0,5.550600368516066,0.0,2.0
1623677792.3125,0,0,6.8296487264109755,0.0,2.0
1623677792.78125,0,0,2.1767461494188702,0.0,2.0
1623677793.25,0,0,22.58286629652432,0.0,2.0
1623677793.71875,0,0,1.4481437780299726,0.0,2.0
1623677794.1875,0,0,5.560942222857895,0.0,2.0
1623677794.65625,0,0,20.191702465389216,0.0,2.0
1623677795.125,0,0,-4.006534566515029,0.0,2.0
1623677795.59375,0,0,13.306680300666839,0.0,2.0
1623677796.0625,0,0,4.884767971586731,0.0,2.0
1623677796.53125,0,0,10.169018120877459,0.0,2.0
1623677797.0,0,0,7.416340948591485,0.0,2.0
1623677797.46875,0,0,5.4714994399463315,0.0,2.0
1623677797.9375,0,0,6.782172683759386,0.0,2.0
1623677798.40625,0,0,9.729688860807695,0.0,2.0
1623677798.875,0,0,7.936798888708091,0.0,2.0
1623677799.34375,0,0,8.504593553340122,0.0,2.0
1623677799.8125,0,0,6.412362305446375,0.0,2.0
1623677800.28125,0,0,5.875022217306412,0.0,2.0
1623677800.75,0,0,8.03900846966435,0.0,2.0
1623677801.21875,0,0,5.004994015164939,0.0,2.0
1623677801.6875,0,0,4.065692312652543,0.0,2.0
1623677802.15625,0,0,6.1654814602585715,0.0,2.0
1623677802.625,0,0,7.985349008980752,0.0,2.0
1623677803.09375,0,0,8.020323816365218,0.0,2.0
1623677803.5625,0,0,12.143491341325063,0.0,2.0
1623677804.03125,0,0,10.398421528849074,0.0,2.0
1623677804.5,0,0,0.0,0.0,2.0
1623677804.96875,0,0,9.935412177892,0.0,2.0
1623677805.4375,0,0,7.900432822808062,0.0,2.0
1623677805.90625,0,0,5.523159336480668,0.0,2.0
1623677806.375,0,0,0.0,0.0,2.0
1623677806.84375,0,0,7.44702139442728,0.0,2.0
1623677807.3125,0,0,9.032776151645525,0.0,2.0
1623677807.78125,0,0,5.240090685507496,0.0,2.0
1623677808.25,0,0,6.895643636946285,0.0,2.0
1623677808.71875,0,0,5.880628082978991,0.0,2.0
1623677809.1875,0,0,6.150348386652302,0.0,2.0
1623677809.65625,0,0,4.20991088819581,0.0,2.0
1623677810.125,0,0,4.007772046904327,0.0,2.0
1623677810.59375,0,0,9.562371530967962,0.0,2.0
1623677811.0625,0,0,2.8146700539982223,0.0,2.0
1623677811.53125,0,0,6.6485707068016255,0.0,2.0
1623677812.0,0,0,5.345240999684046,0.0,2.0
1623677812.46875,0,0,6.61725018243024,0.0,2.0
1623677812.9375,0,0,6.794542373553616,0.0,2.0
1623677813.40625,0,0,4.871721628372951,0.0,2.0
1623677813.875,0,0,5.965390384796049,0.0,2.0
1623677814.34375,0,0,8.06471785426283,0.0,2.0
1623677814.8125,0,0,7.001893030955377,0.0,2.0
1623677815.28125,0,0,6.214865441734513,0.0,2.0
1623677815.75,0,0,5.0767333999767095,0.0,2.0
1623677816.21875,0,0,7.172637855955503,0.0,2.0
1623677816.6875,0,0,6.2525499269801,0.0,2.0
1623677817.15625,0,0,4.057454755141953,0.0,2.0
1623677817.625,0,0,8.295519984044125,0.0,2.0
1623677818.09375,0,0,5.860690264732627,0.0,2.0
1623677818.5625,0,0,4.8140624183516225,0.0,2.0
1623677819.03125,0,0,4.364874708649451,0.0,2.0
1623677819.5,0,0,5.29965699996402,0.0,2.0
1623677819.96875,0,0,6.067849577233191,0.0,2.0
1623677820.4375,0,0,6.8198991321322575,0.0,2.0
1623677820.90625,0,0,4.060978476580888,0.0,2.0
1623677821.375,0,0,6.937877920914641,0.0,2.0
1623677821.84375,0,0,6.404456471222365,0.0,2.0
1623677822.3125,0,0,8.535042355705082,0.0,2.0
1623677822.78125,0,0,5.354087206112094,0.0,2.0
1623677823.25,0,0,9.039203462046215,0.0,2.0
1623677823.71875,0,0,8.663029887320173,0.0,2.0
1623677824.1875,0,0,5.030930829516398,0.0,2.0
1623677824.65625,0,0,6.053919187486228,0.0,2.0
1623677825.125,0,0,7.644221100885489,0.0,2.0
1623677825.59375,0,0,8.685948056912151,0.0,2.0
1623677826.0625,0,0,4.815494036487488,0.0,2.0
1623677826.53125,0,0,5.39733122690433,0.0,2.0
1623677827.0,0,0,9.583251880188536,0.0,2.0
1623677827.46875,0,0,10.312153757389316,0.0,2.0
1623677827.9375,0,0,7.446609661803326,0.0,2.0
1623677828.40625,0,0,5.02993970601353,0.0,2.0
1623677828.875,0,0,9.626016297826476,0.0,2.0
1623677829.34375,0,0,6.990762013456799,0.0,2.0
1623677829.8125,0,0,3.383218755773033,0.0,2.0
1623677830.28125,0,0,10.05069980685422,0.0,2.0
1623677830.75,0,0,5.610158299669089,0.0,2.0
1623677831.21875,0,0,9.65542172041872,0.0,2.0
1623677831.6875,0,0,10.014257306515342,0.0,2.0
1623677832.15625,0,0,7.089301696554646,0.0,2.0
1623677832.625,0,0,2.8975134924680286,0.0,2.0
1623677833.09375,0,0,8.988885413081599,0.0,2.0
1623677833.5625,0,0,6.709072267661534,0.0,2.0
1623677834.03125,0,0,6.6833725529200585,0.0,2.0
1623677834.5,0,0,5.524884698664873,0.0,2.0
1623677834.96875,0,0,7.1790446425570345,0.0,2.0
1623677835.4375,0,0,7.639027812809504,0.0,2.0
1623677835.90625,0,0,3.849966014129685,0.0,2.0
1623677836.375,0,0,6.434422493382368,0.0,2.0
1623677836.84375,0,0,6.355831481238894,0.0,2.0
1623677837.3125,0,0,5.133316964427535,0.0,2.0
1623677837.78125,0,0,4.049488372005157,0.0,2.0
1623677838.25,0,0,5.289049471855183,0.0,2.0
1623677838.71875,0,0,0.0,0.0,2.0
1623677839.1875,0,0,5.6686751621803095,0.0,2.0
1623677839.65625,0,0,6.975528809655743,0.0,2.0
1623677840.125,0,0,7.342865424027284,0.0,2.0
1623677840.59375,0,0,3.475465375548533,0.0,2.0
1623677841.0625,0,0,8.834837604261171,0.0,2.0
1623677841.53125,0,0,8.625346500047502,0.0,2.0
1623677842.0,0,0,9.455769459755006,0.0,2.0
1623677842.46875,0,0,6.995259431536797,0.0,2.0
1623677842.9375,0,0,9.48063432506048,0.0,2.0
1623677843.40625,0,0,0.0,0.0,2.0
1623677843.875,0,0,6.56679592687727,0.0,2.0
1623677844.34375,0,0,7.148401627693501,0.0,2.0
1623677844.8125,0,0,7.197405399969148,0.0,2.0
1623677845.28125,0,0,7.629760845167501,0.0,2.0
1623677845.75,0,0,7.9548735356207185,0.0,2.0
1623677846.21875,0,0,0.7858807928924408,0.0,2.0
1623677846.6875,0,0,1.8277199969779587,0.0,2.0
1623677847.15625,0,0,28.227886189786012,0.0,2.0
1623677847.625,0,0,2.4357367368605654,0.0,2.0
1623677848.09375,0,0,-12.017378099883723,0.0,2.0
1623677848.5625,0,0,11.32486978862003,0.0,2.0
1623677849.03125,0,0,-2.4345409761098495,0.0,2.0
1623677849.5,0,0,54.24438172658266,0.0,2.0
1623677849.96875,0,0,0.0,0.0,2.0
1623677850.4375,0,0,0.0,0.0,2.0
1623677850.90625,0,0,0.0,0.0,2.0
1623677851.375,0,0,28.787883685099978,0.0,2.0
1623677851.84375,0,0,1.5428868904094635,0.0,2.0
1623677852.3125,0,0,-1.3471412587943263,0.0,2.0
1623677852.78125,0,0,0.0,0.0,2.0
1623677853.25,0,0,55.77766007929928,0.0,2.0
1623677853.71875,0,0,0.9050993184133804,0.0,2.0
1623677854.1875,0,0,5.691195518206658,0.0,2.0
1623677854.65625,0,0,73.31568825965243,0.0,2.0
1623677855.125,0,0,0.0,0.0,2.0
1623677855.59375,0,0,-12.897208960189332,0.0,2.0
1623677856.0625,0,0,0.0,0.0,2.0
1623677856.53125,0,0,4.1590946186028415,0.0,2.0
1623677857.0,0,0,0.0,0.0,2.0
1623677857.46875,0,0,-9.317006250500473,0.0,2.0
1623677857.9375,0,0,40.58661594838693,0.0,2.0
1623677858.40625,0,0,-20.925757406130185,0.0,2.0
1623677858.875,0,0,0.0,0.0,2.0
1623677859.34375,0,0,21.608691035767766,0.0,2.0
1623677859.8125,0,0,10.901765066948931,0.0,2.0
1623677860.28125,0,0,0.0,0.0,2.0
1623677860.75,0,0,6.151195211529586,0.0,2.0
1623677861.21875,0,0,4.420111474848022,0.0,2.0
1623677861.6875,0,0,8.203464780004635,0.0,2.0
1623677862.15625,0,0,6.070658334768891,0.0,2.0
1623677862.625,0,0,8.169614785032069,0.0,2.0
1623677863.09375,0,0,10.091953415635533,0.0,2.0
1623677863.5625,0,0,5.5487991041674025,0.0,2.0
1623677864.03125,0,0,2.0207716948777565,0.0,2.0
1623677864.5,0,0,8.089302373123129,0.0,2.0
1623677864.96875,0,0,21.530441807471494,0.0,2.0
1623677865.4375,0,0,-0.043205686930841536,0.0,2.0
1623677865.90625,0,0,11.374238759798454,0.0,2.0
1623677866.375,0,0,8.567414147461507,0.0,2.0
1623677866.84375,0,0,5.3534278695850785,0.0,2.0
1623677867.3125,0,0,7.402629404458544,0.0,2.0
1623677867.78125,0,0,7.2258159686940235,0.0,2.0
1623677868.25,0,0,0.0,0.0,2.0
1623677868.71875,0,0,6.271434398244004,0.0,2.0
1623677869.1875,0,0,8.575645433143317,0.0,2.0
1623677869.65625,0,0,9.639753852887416,0.0,2.0
1623677870.125,0,0,7.329355986388467,0.0,2.0
1623677870.59375,0,0,6.914522437105531,0.0,2.0
1623677871.0625,0,0,-0.524643908874679,0.0,2.0
1623677871.53125,0,0,3.227475598374554,0.0,2.0
1623677872.0,0,0,25.884725419303585,0.0,2.0
1623677872.46875,0,0,6.418595910829817,0.0,2.0
1623677872.9375,0,0,8.821969937842482,0.0,2.0
1623677873.40625,0,0,8.145367029165815,0.0,2.0
1623677873.875,0,0,2.181713069287617,0.0,2.0
1623677874.34375,0,0,9.431238605719686,0.0,2.0
1623677874.8125,0,0,6.913666778040946,0.0,2.0
1623677875.28125,0,0,6.716426171582228,0.0,2.0
1623677875.75,0,0,10.415746239320972,0.0,2.0
1623677876.21875,0,0,5.025621700041785,0.0,2.0
1623677876.6875,0,0,0.8428190909070647,0.0,2.0
1623677877.15625,0,0,6.429494904419968,0.0,2.0
1623677877.625,0,0,7.769148448115555,0.0,2.0
1623677878.09375,0,0,7.70933054742147,0.0,2.0
1623677878.5625,0,0,8.748419382472715,0.0,2.0
1623677879.03125,0,0,8.251306131741295,0.0,2.0
1623677879.5,0,0,10.101606885509733,0.0,2.0
1623677879.96875,0,0,12.769050270318605,0.0,2.0
1623677880.4375,0,0,2.000222550313041,0.0,2.0
1623677880.90625,0,0,3.9017763674927597,0.0,2.0
1623677881.375,0,0,9.497381017416878,0.0,2.0
1623677881.84375,0,0,8.35910029067039,0.0,2.0
1623677882.3125,0,0,6.427131605758512,0.0,2.0
1623677882.78125,0,0,7.370082177108439,0.0,2.0
1623677883.25,0,0,6.836360734593766,0.0,2.0
1623677883.71875,0,0,6.574479856814209,0.0,2.0
1623677884.1875,0,0,6.674310443766342,0.0,2.0
1623677884.65625,0,0,6.0887146539604045,0.0,2.0
1623677885.125,0,0,7.720155447923057,0.0,2.0
1623677885.59375,0,0,5.340558453802192,0.0,2.0
1623677886.0625,0,0,2.591419049756095,0.0,2.0
1623677886.53125,0,0,0.0,0.0,2.0
1623677887.0,0,0,5.340102122143773,0.0,2.0
1623677887.46875,0,0,4.958729288658229,0.0,2.0
1623677887.9375,0,0,2.9931006097348063,0.0,2.0
1623677888.40625,0,0,9.753653328846818,0.0,2.0
1623677888.875,0,0,4.400223692554172,0.0,2.0
1623677889.34375,0,0,5.4340834499754305,0.0,2.0
1623677889.8125,0,0,8.61584876478574,0.0,2.0
1623677890.28125,0,0,5.180878958573935,0.0,2.0
1623677890.75,0,0,3.4905101752937306,0.0,2.0
1623677891.21875,0,0,7.437983646587388,0.0,2.0
1623677891.6875,0,0,8.624394480687645,0.0,2.0
1623677892.15625,0,0,3.9290927980199193,0.0,2.0
1623677892.625,0,0,-1.0721184088699964,0.0,2.0
1623677893.09375,0,0,23.26118733955321,0.0,2.0
1623677893.5625,0,0,15.04863485249257,0.0,2.0
1623677894.03125,0,0,17.85405118239738,0.0,2.0
1623677894.5,0,0,0.0,0.0,2.0
1623677894.96875,0,0,28.234159123379715,0.0,2.0
1623677895.4375,0,0,13.330334642074648,0.0,2.0
1623677895.90625,0,0,-9.652067400085773,0.0,2.0
1623677896.375,0,0,4.615105775120077,0.0,2.0
1623677896.84375,0,0,13.008226160212491,0.0,2.0
1623677897.3125,0,0,5.064439268126536,0.0,2.0
1623677897.78125,0,0,9.68560942298616,0.0,2.0
1623677898.25,0,0,3.1152960366541067,0.0,2.0
1623677898.71875,0,0,6.424145340394576,0.0,2.0
1623677899.1875,0,0,7.797843075326032,0.0,2.0
1623677899.65625,0,0,9.886364842585005,0.0,2.0
1623677900.125,0,0,6.920677651268361,0.0,2.0
1623677900.59375,0,0,2.9732757707177297,0.0,2.0
1623677901.0625,0,0,10.968512590109082,0.0,2.0
1623677901.53125,0,0,8.08887709684413,0.0,2.0
1623677902.0,0,0,5.026250343277579,0.0,2.0
1623677902.46875,0,0,15.7799090836649,0.0,2.0
1623677902.9375,0,0,12.639148122843531,0.0,2.0
1623677903.40625,0,0,0.0,0.0,2.0
1623677903.875,0,0,-8.755737497078531,0.0,2.0
1623677904.34375,0,0,22.061248418575133,0.0,2.0
1623677904.8125,0,0,76.83813656763739,0.0,2.0
1623677905.28125,0,0,55.742933658969605,0.0,2.0
1623677905.75,0,0,0.0,0.0,2.0
1623677906.21875,0,0,26.059904498757074,0.0,2.0
1623677906.6875,0,0,0.0,0.0,2.0
1623677907.15625,0,0,30.006151162717025,0.0,2.0
1623677907.625,0,0,49.8093378944433,0.0,2.0
1623677908.09375,0,0,53.22419078014588,0.0,2.0
1623677908.5625,0,0,-12.039455297151434,0.0,2.0
1623677909.03125,0,0,0.0,0.0,2.0
1623677909.5,0,0,55.334405073967964,0.0,2.0
1623677909.96875,0,0,0.0,0.0,2.0
1623677910.4375,0,0,0.0,0.0,2.0
1623677910.90625,0,0,0.0,0.0,2.0
1623677911.375,0,0,5.442817520937888,0.0,2.0
1623677911.84375,0,0,48.58009978195678,0.0,2.0
1623677912.3125,0,0,0.0,0.0,2.0
1623677912.78125,0,0,43.43495570523339,0.0,2.0
1623677913.25,0,0,-19.510237987934044,0.0,2.0
1623677913.71875,0,0,0.0,0.0,2.0
1623677914.1875,0,0,56.375161073032594,0.0,2.0
1623677914.65625,0,0,0.0,0.0,2.0
1623677915.125,0,0,0.0,0.0,2.0
1623677915.59375,0,0,43.1659559194224,0.0,2.0
1623677916.0625,0,0,0.0,0.0,2.0
1623677916.53125,0,0,192.9614055948489,0.0,3.0
1623677917.0,0,0,-9.856311350305315,0.0,3.0
1623677917.46875,0,0,439.38856902794345,0.0,3.0
1623677917.9375,0,0,-4.554495717563284,0.0,3.0
1623677918.40625,0,0,-32.048424125408715,0.0,3.0
1623677918.875,0,0,102.19967418842685,0.0,3.0
1623677919.34375,0,0,0.0,0.0,3.0
1623677919.8125,0,0,159.99578244674515,0.0,3.0
1623677920.28125,0,0,268.30617296821276,0.0,3.0
1623677920.75,0,0,0.0,0.0,3.0
1623677921.21875,0,0,0.0,0.0,3.0
1623677921.6875,0,0,83.13335955364293,0.0,3.0
1623677922.15625,0,0,10.614320251441232,0.0,3.0
1623677922.625,0,0,0.0,0.0,3.0
1623677923.09375,0,0,69.2015450110102,0.0,3.0
1623677923.5625,0,0,-5.080761927067447,0.0,3.0
1623677924.03125,0,0,29.694401437920334,0.0,3.0
1623677924.5,0,0,61.27693424364412,0.0,3.0
1623677924.96875,0,0,0.0,0.0,3.0
1623677925.4375,0,0,86.19946217185411,0.0,3.0
1623677925.90625,0,0,46.33295194641772,0.0,3.0
1623677926.375,0,0,30.794033547098422,0.0,3.0
1623677926.84375,0,0,0.0,0.0,3.0
1623677927.3125,0,0,67.85970552481854,0.0,3.0
1623677927.78125,0,0,-20.95059055003848,0.0,3.0
1623677928.25,0,0,-3.5942369387800888,0.0,3.0
1623677928.71875,0,0,45.49493253987306,0.0,3.0
1623677929.1875,0,0,-5.027002389084618,0.0,3.0
1623677929.65625,0,0,62.62658550997034,0.0,3.0
1623677930.125,0,0,13.845882595233606,0.0,3.0
1623677930.59375,0,0,20.192074989264107,0.0,3.0
1623677931.0625,0,0,0.0,0.0,3.0
1623677931.53125,0,0,23.99077651354325,0.0,3.0
1623677932.0,0,0,64.68209023200953,0.0,3.0
1623677932.46875,0,0,-26.51127270559521,0.0,3.0
1623677932.9375,0,0,76.41545289098947,0.0,3.0
1623677933.40625,0,0,15.894619881927854,0.0,3.0
1623677933.875,0,0,10.076939328785365,0.0,3.0
1623677934.34375,0,0,20.43437773936343,0.0,3.0
1623677934.8125,0,0,3.86677883137565,0.0,3.0
1623677935.28125,0,0,20.14627849373208,0.0,3.0
1623677935.75,0,0,76.53549281214924,0.0,3.0
1623677936.21875,0,0,0.0,0.0,3.0
1623677936.6875,0,0,9.389836932723442,0.0,3.0
1623677937.15625,0,0,16.54083755956779,0.0,3.0
1623677937.625,0,0,45.05279917336431,0.0,3.0
1623677938.09375,0,0,0.9822575344610006,0.0,3.0
1623677938.5625,0,0,17.063144696384438,0.0,3.0
1623677939.03125,0,0,18.21611627346156,0.0,3.0
1623677939.5,0,0,2.3162603958996946,0.0,3.0
1623677939.96875,0,0,11.65358554789934,0.0,3.0
1623677940.4375,0,0,-1.9126872501085466,0.0,3.0
1623677940.90625,0,0,57.056513609672365,0.0,3.0
1623677941.375,0,0,-3.2074596701564846,0.0,3.0
1623677941.84375,0,0,41.1369036014313,0.0,3.0
1623677942.3125,0,0,11.606448629024014,0.0,3.0
1623677942.78125,0,0,-1.281180477184274,0.0,3.0
1623677943.25,0,0,71.91368695440242,0.0,3.0
1623677943.71875,0,0,16.114695682820933,0.0,3.0
1623677944.1875,0,0,43.157618447622376,0.0,3.0
1623677944.65625,0,0,0.0,0.0,3.0
1623677945.125,0,0,28.65681718424623,0.0,3.0
1623677945.59375,0,0,10.860895709956653,0.0,3.0
1623677946.0625,0,0,11.179212204607605,0.0,3.0
1623677946.53125,0,0,2.6396894541465437,0.0,3.0
1623677947.0,0,0,0.37986824800613705,0.0,3.0
1623677947.46875,0,0,56.107590128479835,0.0,3.0
1623677947.9375,0,0,10.238728079034932,0.0,3.0
1623677948.40625,0,0,11.084159856986135,0.0,3.0
1623677948.875,0,0,20.281487034643412,0.0,3.0
1623677949.34375,0,0,43.39021931785487,0.0,3.0
1623677949.8125,0,0,2.5054184159976005,0.0,3.0
1623677950.28125,0,0,12.830806090506814,0.0,3.0
1623677950.75,0,0,20.847789127430875,0.0,3.0
1623677951.21875,0,0,36.5675615743613,0.0,3.0
1623677951.6875,0,0,18.560125594879267,0.0,3.0
1623677952.15625,0,0,0.0,0.0,3.0
1623677952.625,0,0,6.337241932818173,0.0,3.0
1623677953.09375,0,0,43.271661999998976,0.0,3.0
1623677953.5625,0,0,7.719827423161873,0.0,3.0
1623677954.03125,0,0,17.14998453459686,0.0,3.0
1623677954.5,0,0,56.94828993027164,0.0,3.0
1623677954.96875,0,0,-6.159980965780125,0.0,3.0
1623677955.4375,0,0,56.61567548679112,0.0,3.0
1623677955.90625,0,0,0.0,0.0,3.0
1623677956.375,0,0,14.274027764323037,0.0,3.0
1623677956.84375,0,0,46.12734435116132,0.0,3.0
1623677957.3125,0,0,15.925592435073805,0.0,3.0
1623677957.78125,0,0,-2.6509817349701406,0.0,3.0
1623677958.25,0,0,47.52354909576279,0.0,3.0
1623677958.71875,0,0,40.11955535386016,0.0,3.0
1623677959.1875,0,0,0.0,0.0,3.0
1623677959.65625,0,0,17.009445809159725,0.0,3.0
1623677960.125,0,0,7.01088648983443,0.0,3.0
1623677960.59375,0,0,3.992802157493625,0.0,3.0
1623677961.0625,0,0,43.9475264275003,0.0,3.0
1623677961.53125,0,0,16.298342215115888,0.0,3.0
1623677962.0,0,0,11.563413725412529,0.0,3.0
1623677962.46875,0,0,0.0,0.0,3.0
1623677962.9375,0,0,28.58985927699949,0.0,3.0
1623677963.40625,0,0,1.5574239771457423,0.0,3.0
1623677963.875,0,0,15.453098509296488,0.0,3.0
1623677964.34375,0,0,14.394315380388392,0.0,3.0
1623677964.8125,0,0,32.81554262802525,0.0,3.0
1623677965.28125,0,0,13.256466280474742,0.0,3.0
1623677965.75,0,0,9.291809477658946,0.0,3.0
1623677966.21875,0,0,0.7699267707943436,0.0,3.0
1623677966.6875,0,0,20.328132986007493,0.0,3.0
1623677967.15625,0,0,-2.338438402501162,0.0,3.0
1623677967.625,0,0,13.675485992674279,0.0,3.0
1623677968.09375,0,0,10.386854560366267,0.0,3.0
1623677968.5625,0,0,24.28921221948537,0.0,3.0
1623677969.03125,0,0,0.0,0.0,3.0
1623677969.5,0,0,18.915432309194255,0.0,3.0
1623677969.96875,0,0,13.378795815222107,0.0,3.0
1623677970.4375,0,0,22.456333037153325,0.0,3.0
1623677970.90625,0,0,5.336404660777857,0.0,3.0
1623677971.375,0,0,9.270313349014357,0.0,3.0
1623677971.84375,0,0,14.88271732350016,0.0,3.0
1623677972.3125,0,0,8.360681890553046,0.0,3.0
1623677972.78125,0,0,7.383812436324443,0.0,3.0
1623677973.25,0,0,7.211745563678763,0.0,3.0
1623677973.71875,0,0,6.269147490473461,0.0,3.0
1623677974.1875,0,0,9.144445546354847,0.0,3.0
1623677974.65625,0,0,6.753079201580812,0.0,3.0
1623677975.125,0,0,10.187716564801374,0.0,3.0
1623677975.59375,0,0,4.629044261539171,0.0,3.0
1623677976.0625,0,0,-0.8837580409857783,0.0,3.0
1623677976.53125,0,0,6.145734058312517,0.0,3.0
1623677977.0,0,0,7.710280151785256,0.0,3.0
1623677977.46875,0,0,5.518068882230361,0.0,3.0
1623677977.9375,0,0,10.091735915716377,0.0,3.0
1623677978.40625,0,0,6.694055163203956,0.0,3.0
1623677978.875,0,0,0.0,0.0,3.0
1623677979.34375,0,0,10.778558885552561,0.0,3.0
1623677979.8125,0,0,9.714360193874711,0.0,3.0
1623677980.28125,0,0,5.922780882678537,0.0,3.0
1623677980.75,0,0,0.04612713461840133,0.0,3.0
1623677981.21875,0,0,2.718524270424471,0.0,3.0
1623677981.6875,0,0,10.102810605639968,0.0,3.0
1623677982.15625,0,0,9.451829596261401,0.0,3.0
1623677982.625,0,0,7.36142147439385,0.0,3.0
1623677983.09375,0,0,6.997322836487292,0.0,3.0
1623677983.5625,0,0,7.695612475264214,0.0,3.0
1623677984.03125,0,0,8.388809302669118,0.0,3.0
1623677984.5,0,0,9.126292145108643,0.0,3.0
1623677984.96875,0,0,10.662611957209831,0.0,3.0
1623677985.4375,0,0,2.431929288750285,0.0,3.0
1623677985.90625,0,0,2.9369676723158262,0.0,3.0
1623677986.375,0,0,6.215097897926153,0.0,3.0
1623677986.84375,0,0,6.134750565404011,0.0,3.0
1623677987.3125,0,0,7.348513758178521,0.0,3.0
1623677987.78125,0,0,64.90686427745106,0.0,3.0
1623677988.25,0,0,0.0,0.0,3.0
1623677988.71875,0,0,40.770332335206085,0.0,3.0
1623677989.1875,0,0,3.487757432276599,0.0,3.0
1623677989.65625,0,0,38.27444694070808,0.0,3.0
1623677990.125,0,0,11.563673073153666,0.0,3.0
1623677990.59375,0,0,10.674304695428608,0.0,3.0
1623677991.0625,0,0,5.618590505002265,0.0,3.0
1623677991.53125,0,0,0.0,0.0,3.0
1623677992.0,0,0,12.177934733079008,0.0,3.0
1623677992.46875,0,0,8.27790901872709,0.0,3.0
1623677992.9375,0,0,0.0,0.0,3.0
1623677993.40625,0,0,49.59029095591206,0.0,3.0
1623677993.875,0,0,8.946010750747776,0.0,3.0
1623677994.34375,0,0,14.687398223289994,0.0,3.0
1623677994.8125,0,0,22.707681378379313,0.0,3.0
1623677995.28125,0,0,0.0,0.0,3.0
1623677995.75,0,0,16.582938103571042,0.0,3.0
1623677996.21875,0,0,0.0,0.0,3.0
1623677996.6875,0,0,11.007804152809616,0.0,3.0
1623677997.15625,0,0,49.46067127182996,0.0,3.0
1623677997.625,0,0,15.168247591264947,0.0,3.0
1623677998.09375,0,0,5.1915420105423,0.0,3.0
1623677998.5625,0,0,-0.6658909343233852,0.0,3.0
1623677999.03125,0,0,53.098135376577105,0.0,3.0
1623677999.5,0,0,9.758861851406367,0.0,3.0
1623677999.96875,0,0,12.291850059113472,0.0,3.0
1623678000.4375,0,0,8.54068474480631,0.0,3.0
1623678000.90625,0,0,48.95468703584749,0.0,3.0
1623678001.375,0,0,-12.520392061119386,0.0,3.0
1623678001.84375,0,0,10.799520239446375,0.0,3.0
1623678002.3125,0,0,9.427878604241767,0.0,3.0
1623678002.78125,0,0,46.25690738232289,0.0,3.0
1623678003.25,0,0,11.15740121856081,0.0,3.0
1623678003.71875,0,0,0.0,0.0,3.0
1623678004.1875,0,0,9.28921378566337,0.0,3.0
1623678004.65625,0,0,37.14313476378892,0.0,3.0
1623678005.125,0,0,38.65722658043681,0.0,3.0
1623678005.59375,0,0,-22.881013560386133,0.0,3.0
1623678006.0625,0,0,22.33437776337126,0.0,3.0
1623678006.53125,0,0,-0.4650673634733711,0.0,3.0
1623678007.0,0,0,71.13402628171022,0.0,3.0
1623678007.46875,0,0,9.12163350314538,0.0,3.0
1623678007.9375,0,0,17.554941353108504,0.0,3.0
1623678008.40625,0,0,0.0,0.0,3.0
1623678008.875,0,0,38.993319153193006,0.0,3.0
1623678009.34375,0,0,5.58219547770192,0.0,3.0
1623678009.8125,0,0,11.452446751267711,0.0,3.0
1623678010.28125,0,0,0.0,0.0,3.0
1623678010.75,0,0,37.63322258388361,0.0,3.0
1623678011.21875,0,0,1.6113546816965796,0.0,3.0
1623678011.6875,0,0,14.185018473826544,0.0,3.0
1623678012.15625,0,0,5.475593577682617,0.0,3.0
1623678012.625,0,0,41.09010310073843,0.0,3.0
1623678013.09375,0,0,17.443250495971608,0.0,3.0
1623678013.5625,0,0,-2.9811903604265524,0.0,3.0
1623678014.03125,0,0,11.616322199033204,0.0,3.0
1623678014.5,0,0,61.24322803038002,0.0,3.0
1623678014.96875,0,0,0.0,0.0,3.0
1623678015.4375,0,0,34.058016523437544,0.0,3.0
1623678015.90625,0,0,4.689103386175346,0.0,3.0
1623678016.375,0,0,6.12539384187143,0.0,3.0
1623678016.84375,0,0,86.87491920690624,0.0,3.0
1623678017.3125,0,0,43.83517491520052,0.0,3.0
1623678017.78125,0,0,0.0,0.0,3.0
1623678018.25,0,0,39.32128270590425,0.0,3.0
1623678018.71875,0,0,49.61776375694804,0.0,3.0
1623678019.1875,0,0,-5.534504625956957,0.0,3.0
1623678019.65625,0,0,35.06938104338396,0.0,3.0
1623678020.125,0,0,27.42702517552946,0.0,3.0
1623678020.59375,0,0,34.75200356414271,0.0,3.0
1623678021.0625,0,0,8.537239959447817,0.0,3.0
1623678021.53125,0,0,-7.780607749773573,0.0,3.0
1623678022.0,0,0,50.37626927541194,0.0,3.0
1623678022.46875,0,0,-8.01253199762747,0.0,3.0
1623678022.9375,0,0,29.184120107528837,0.0,3.0
1623678023.40625,0,0,31.772300538655514,0.0,3.0
1623678023.875,0,0,7.76711117885497,0.0,3.0
1623678024.34375,0,0,36.72212826400181,0.0,3.0
1623678024.8125,0,0,0.0,0.0,3.0
1623678025.28125,0,0,13.612843045594976,0.0,3.0
1623678025.75,0,0,16.98901133479703,0.0,3.0
1623678026.21875,0,0,29.39115028023107,0.0,3.0
1623678026.6875,0,0,30.44447290925978,0.0,3.0
1623678027.15625,0,0,17.129209355257117,0.0,3.0
1623678027.625,0,0,10.697401074671378,0.0,3.0
1623678028.09375,0,0,4.535968892945247,0.0,3.0
1623678028.5625,0,0,43.161986269710894,0.0,3.0
1623678029.03125,0,0,6.857346650614381,0.0,3.0
1623678029.5,0,0,19.718301147412962,0.0,3.0
1623678029.96875,0,0,15.01150982037679,0.0,3.0
1623678030.4375,0,0,5.631977031771383,0.0,3.0
1623678030.90625,0,0,1.9116265529441359,0.0,3.0
1623678031.375,0,0,13.229135103232828,0.0,3.0
1623678031.84375,0,0,12.403896480945283,0.0,3.0
1623678032.3125,0,0,8.860836664215773,0.0,3.0
1623678032.78125,0,0,14.393953494961858,0.0,3.0
1623678033.25,0,0,6.8270966292250055,0.0,3.0
1623678033.71875,0,0,3.546299597501552,0.0,3.0
1623678034.1875,0,0,10.464498085230677,0.0,3.0
1623678034.65625,0,0,10.485556407561413,0.0,3.0
1623678035.125,0,0,8.025406358080593,0.0,3.0
1623678035.59375,0,0,11.193726543274426,0.0,3.0
1623678036.0625,0,0,9.27871365697752,0.0,3.0
1623678036.53125,0,0,3.424303820036069,0.0,3.0
1623678037.0,0,0,12.859018945201361,0.0,3.0
1623678037.46875,0,0,11.562049272805373,0.0,3.0
1623678037.9375,0,0,7.328163020727505,0.0,3.0
1623678038.40625,0,0,7.810758792084487,0.0,3.0
1623678038.875,0,0,5.8794788011787915,0.0,3.0
1623678039.34375,0,0,15.205364474238468,0.0,3.0
1623678039.8125,0,0,5.651745104938129,0.0,3.0
1623678040.28125,0,0,12.584153001815405,0.0,3.0
1623678040.75,0,0,16.360439243494003,0.0,3.0
1623678041.21875,0,0,1.3106788876020574,0.0,3.0
1623678041.6875,0,0,0.0,0.0,3.0
1623678042.15625,0,0,26.763869196788896,0.0,3.0
1623678042.625,0,0,43.39253597163116,0.0,3.0
1623678043.09375,0,0,0.0,0.0,3.0
1623678043.5625,0,0,181.9738773138802,0.0,3.0
1623678044.03125,0,0,-12.18098923087003,0.0,3.0
1623678044.5,0,0,76.5662301444943,0.0,3.0
1623678044.96875,0,0,-36.48872704530755,0.0,3.0
1623678045.4375,0,0,71.55921212780186,0.0,3.0
1623678045.90625,0,0,23.38947952910838,0.0,3.0
1623678046.375,0,0,24.824053060790273,0.0,3.0
1623678046.84375,0,0,8.41338226832659,0.0,3.0
1623678047.3125,0,0,49.12345404069011,0.0,3.0
1623678047.78125,0,0,13.621819846050183,0.0,3.0
1623678048.25,0,0,3.34775971098721,0.0,3.0
1623678048.71875,0,0,18.4012481104891,0.0,3.0
1623678049.1875,0,0,29.108685697971445,0.0,3.0
1623678049.65625,0,0,-2.2687955088914933,0.0,3.0
1623678050.125,0,0,12.254437325273681,0.0,3.0
1623678050.59375,0,0,9.333592084458855,0.0,3.0
1623678051.0625,0,0,52.5870637156997,0.0,3.0
1623678051.53125,0,0,17.491493839029967,0.0,3.0
1623678052.0,0,0,21.950623081345054,0.0,3.0
1623678052.46875,0,0,12.536357257075391,0.0,3.0
1623678052.9375,0,0,10.180978000352061,0.0,3.0
1623678053.40625,0,0,110.9501074774352,0.0,3.0
1623678053.875,0,0,56.390224104987546,0.0,3.0
1623678054.34375,0,0,0.0,0.0,3.0
1623678054.8125,0,0,48.426584408519886,0.0,3.0
1623678055.28125,0,0,82.42597250392083,0.0,3.0
1623678055.75,0,0,0.0,0.0,3.0
1623678056.21875,0,0,30.401641300195333,0.0,3.0
1623678056.6875,0,0,13.645534810975123,0.0,3.0
1623678057.15625,0,0,69.51939481242661,0.0,3.0
1623678057.625,0,0,15.276188630068923,0.0,3.0
1623678058.09375,0,0,11.460787106913104,0.0,3.0
1623678058.5625,0,0,0.0,0.0,3.0
1623678059.03125,0,0,51.17278177396455,0.0,3.0
1623678059.5,0,0,-1.509284675505516,0.0,3.0
1623678059.96875,0,0,18.25800368919884,0.0,3.0
1623678060.4375,0,0,22.165357064518233,0.0,3.0
1623678060.90625,0,0,76.1764055242651,0.0,3.0
1623678061.375,0,0,0.0,0.0,3.0
1623678061.84375,0,0,20.16194620186787,0.0,3.0
1623678062.3125,0,0,0.0,0.0,3.0
1623678062.78125,0,0,42.218354446106915,0.0,3.0
1623678063.25,0,0,-1.6374648179254339,0.0,3.0
1623678063.71875,0,0,15.438617305110352,0.0,3.0
1623678064.1875,0,0,5.625119712223792,0.0,3.0
1623678064.65625,0,0,13.945679613594795,0.0,3.0
1623678065.125,0,0,0.0,0.0,3.0
1623678065.59375,0,0,16.698732956986237,0.0,3.0
1623678066.0625,0,0,4.672510239719388,0.0,3.0
1623678066.53125,0,0,0.0,0.0,3.0
1623678067.0,0,0,63.89549340189885,0.0,3.0
1623678067.46875,0,0,5.14059902317786,0.0,3.0
1623678067.9375,0,0,0.0,0.0,3.0
1623678068.40625,0,0,-0.22888943034328643,0.0,3.0
1623678068.875,0,0,98.76406562585825,0.0,3.0
1623678069.34375,0,0,0.0,0.0,3.0
1623678069.8125,0,0,50.17385212132545,0.0,3.0
1623678070.28125,0,0,-9.3644747407437,0.0,3.0
1623678070.75,0,0,0.0,0.0,3.0
1623678071.21875,0,0,91.08163324874474,0.0,3.0
1623678071.6875,0,0,-5.502859043718189,0.0,3.0
1623678072.15625,0,0,0.0,0.0,3.0
1623678072.625,0,0,39.220926426996876,0.0,3.0
1623678073.09375,0,0,54.84519920420586,0.0,3.0
1623678073.5625,0,0,7.27898122108449,0.0,3.0
