timestamp,mean_pulse_rate,pulse_rate_std,mean_pulse_amplitude,pulse_amplitude_std,block
1623676766.03125,0,0,0.0,0.0,1.0
1623676766.5,0,0,-11.859003297847531,0.0,1.0
1623676766.96875,0,0,-6.478197499110085,0.0,1.0
1623676767.4375,0,0,197.0834731852863,0.0,1.0
1623676767.90625,0,0,121.81674604561492,0.0,1.0
1623676768.375,0,0,121.8209544563807,0.0,1.0
1623676768.84375,0,0,0.0,0.0,1.0
1623676769.3125,0,0,9.051342030921509,0.0,1.0
1623676769.78125,0,0,4.658976289042945,0.0,1.0
1623676770.25,0,0,-2.763300053490403,0.0,1.0
1623676770.71875,0,0,5.021309420754611,0.0,1.0
1623676771.1875,0,0,6.98880239567646,0.0,1.0
1623676771.65625,0,0,3.6408618748101533,0.0,1.0
1623676772.125,0,0,-4.372398051302591,0.0,1.0
1623676772.59375,0,0,-4.301749237085367,0.0,1.0
1623676773.0625,0,0,19.715564614921234,0.0,1.0
1623676773.53125,0,0,7.586343553805021,0.0,1.0
1623676774.0,0,0,17.55974532153738,0.0,1.0
1623676774.46875,0,0,0.0,0.0,1.0
1623676774.9375,0,0,218.0257752917071,0.0,1.0
1623676775.40625,0,0,0.0,0.0,1.0
1623676775.875,0,0,403.7850700309873,0.0,1.0
1623676776.34375,0,0,0.0,0.0,1.0
1623676776.8125,0,0,0.0,0.0,1.0
1623676777.28125,0,0,15.005139928561654,0.0,1.0
1623676777.75,0,0,0.0,0.0,1.0
1623676778.21875,0,0,31.96229444081652,0.0,1.0
1623676778.6875,0,0,-2.5995333922580572,0.0,1.0
1623676779.15625,0,0,0.0,0.0,1.0
1623676779.625,0,0,139.45192558946098,0.0,1.0
1623676780.09375,0,0,36.23201421305487,0.0,1.0
1623676780.5625,0,0,0.0,0.0,1.0
1623676781.03125,0,0,15.703901725451667,0.0,1.0
1623676781.5,0,0,12.203082298534424,0.0,1.0
1623676781.96875,0,0,16.56932261359032,0.0,1.0
1623676782.4375,0,0,4.401557334047553,0.0,1.0
1623676782.90625,0,0,29.23413609102574,0.0,1.0
1623676783.375,0,0,0.0,0.0,1.0
1623676783.84375,0,0,0.0,0.0,1.0
1623676784.3125,0,0,29.238776416414748,0.0,1.0
1623676784.78125,0,0,45.29066172130881,0.0,1.0
1623676785.25,0,0,-18.6635437003719,0.0,1.0
1623676785.71875,0,0,16.09573382916728,0.0,1.0
1623676786.1875,0,0,2.7116831214267147,0.0,1.0
1623676786.65625,0,0,2.251347849826076,0.0,1.0
1623676787.125,0,0,2.3589463730591373,0.0,1.0
1623676787.59375,0,0,0.0,0.0,1.0
1623676788.0625,0,0,4.122606436417774,0.0,1.0
1623676788.53125,0,0,2.3519648790316463,0.0,1.0
1623676789.0,0,0,2.7313043795786296,0.0,1.0
1623676789.46875,0,0,3.3535594716294503,0.0,1.0
1623676789.9375,0,0,2.353351590678257,0.0,1.0
1623676790.40625,0,0,3.2320422646599427,0.0,1.0
1623676790.875,0,0,0.0,0.0,1.0
1623676791.34375,0,0,0.9792304656871628,0.0,1.0
1623676791.8125,0,0,2.328825657239162,0.0,1.0
1623676792.28125,0,0,3.7061497345423584,0.0,1.0
1623676792.75,0,0,1.9146464589849024,0.0,1.0
1623676793.21875,0,0,1.314422582743124,0.0,1.0
1623676793.6875,0,0,1.6781020650616616,0.0,1.0
1623676794.15625,0,0,6.099181053425544,0.0,1.0
1623676794.625,0,0,2.0192969488417702,0.0,1.0
1623676795.09375,0,0,0.0,0.0,1.0
1623676795.5625,0,0,55.44985534249846,0.0,1.0
1623676796.03125,0,0,0.0,0.0,1.0
1623676796.5,0,0,0.0,0.0,1.0
1623676796.96875,0,0,3.0041052079733355,0.0,1.0
1623676797.4375,0,0,-0.3523101448283646,0.0,1.0
1623676797.90625,0,0,0.0,0.0,1.0
1623676798.375,0,0,2.2691679631858537,0.0,1.0
1623676798.84375,0,0,0.0,0.0,1.0
1623676799.3125,0,0,5.500016089094606,0.0,1.0
1623676799.78125,0,0,2.463918290004194,0.0,1.0
1623676800.25,0,0,6.455229928761312,0.0,1.0
1623676800.71875,0,0,0.9219052472309748,0.0,1.0
1623676801.1875,0,0,0.0,0.0,1.0
1623676801.65625,0,0,2.606351287153899,0.0,1.0
1623676802.125,0,0,2.8702849930898644,0.0,1.0
1623676802.59375,0,0,3.53892473458376,0.0,1.0
1623676803.0625,0,0,-0.2471686542188603,0.0,1.0
1623676803.53125,0,0,3.322575651675656,0.0,1.0
1623676804.0,0,0,2.8059696367555995,0.0,1.0
1623676804.46875,0,0,1.3695647321610276,0.0,1.0
1623676804.9375,0,0,1.1399391998510873,0.0,1.0
1623676805.40625,0,0,-0.06376368113365401,0.0,1.0
1623676805.875,0,0,1.2746720117985264,0.0,1.0
1623676806.34375,0,0,3.0070097920149705,0.0,1.0
1623676806.8125,0,0,2.5358852563088954,0.0,1.0
1623676807.28125,0,0,3.0527728555312525,0.0,1.0
1623676807.75,0,0,3.3452352289532956,0.0,1.0
1623676808.21875,0,0,1.472181744860215,0.0,1.0
1623676808.6875,0,0,3.90960278580212,0.0,1.0
1623676809.15625,0,0,0.7147287305963814,0.0,1.0
1623676809.625,0,0,2.6519411531149366,0.0,1.0
1623676810.09375,0,0,7.055573253939648,0.0,1.0
1623676810.5625,0,0,0.0,0.0,1.0
1623676811.03125,0,0,1.7464972984993719,0.0,1.0
1623676811.5,0,0,2.405780175770743,0.0,1.0
1623676811.96875,0,0,1.392059287346832,0.0,1.0
1623676812.4375,0,0,4.508625976771976,0.0,1.0
1623676812.90625,0,0,0.0,0.0,1.0
1623676813.375,0,0,3.4514893921098797,0.0,1.0
1623676813.84375,0,0,0.06966007788034095,0.0,1.0
1623676814.3125,0,0,0.9135115534324068,0.0,1.0
1623676814.78125,0,0,0.0,0.0,1.0
1623676815.25,0,0,0.2790269295709967,0.0,1.0
1623676815.71875,0,0,2.3098615479958475,0.0,1.0
1623676816.1875,0,0,5.2039960084275965,0.0,1.0
1623676816.65625,0,0,-0.2366470896929837,0.0,1.0
1623676817.125,0,0,1.8906856805613956,0.0,1.0
1623676817.59375,0,0,3.1879773380740017,0.0,1.0
1623676818.0625,0,0,1.5798686121567351,0.0,1.0
1623676818.53125,0,0,0.491056756133176,0.0,1.0
1623676819.0,0,0,0.3145069096461196,0.0,1.0
1623676819.46875,0,0,3.1480567193992877,0.0,1.0
1623676819.9375,0,0,2.288059305218168,0.0,1.0
1623676820.40625,0,0,1.883906490728692,0.0,1.0
1623676820.875,0,0,1.3440248419544851,0.0,1.0
1623676821.34375,0,0,0.0,0.0,1.0
1623676821.8125,0,0,1.6550393699792674,0.0,1.0
1623676822.28125,0,0,0.0,0.0,1.0
1623676822.75,0,0,0.0,0.0,1.0
1623676823.21875,0,0,0.5820531919592372,0.0,1.0
1623676823.6875,0,0,1.0243885345531218,0.0,1.0
1623676824.15625,0,0,0.8083636194318549,0.0,1.0
1623676824.625,0,0,1.0785627498323804,0.0,1.0
1623676825.09375,0,0,1.0780043089459408,0.0,1.0
1623676825.5625,0,0,0.8649774318893255,0.0,1.0
1623676826.03125,0,0,0.9367391230017982,0.0,1.0
1623676826.5,0,0,1.754502782571842,0.0,1.0
1623676826.96875,0,0,1.200661847575048,0.0,1.0
1623676827.4375,0,0,1.719764429790358,0.0,1.0
1623676827.90625,0,0,0.10829763393012608,0.0,1.0
1623676828.375,0,0,4.985440235512349,0.0,1.0
1623676828.84375,0,0,0.9820207052819129,0.0,1.0
1623676829.3125,0,0,1.3190353728826736,0.0,1.0
1623676829.78125,0,0,0.14389441706181486,0.0,1.0
1623676830.25,0,0,5.821330425831816,0.0,1.0
1623676830.71875,0,0,0.3325912685012976,0.0,1.0
1623676831.1875,0,0,0.8482860726142855,0.0,1.0
1623676831.65625,0,0,1.862602401579305,0.0,1.0
1623676832.125,0,0,0.0,0.0,1.0
1623676832.59375,0,0,0.0,0.0,1.0
1623676833.0625,0,0,0.8741336183555917,0.0,1.0
1623676833.53125,0,0,2.1333326300316258,0.0,1.0
1623676834.0,0,0,1.3858496650967043,0.0,1.0
1623676834.46875,0,0,1.3930195403944674,0.0,1.0
1623676834.9375,0,0,2.3563456841759853,0.0,1.0
1623676835.40625,0,0,1.3539290190652653,0.0,1.0
1623676835.875,0,0,0.43126139258490404,0.0,1.0
1623676836.34375,0,0,0.0,0.0,1.0
1623676836.8125,0,0,0.0,0.0,1.0
1623676837.28125,0,0,0.9300604065674668,0.0,1.0
1623676837.75,0,0,2.9467059131875506,0.0,1.0
1623676838.21875,0,0,1.348635300523919,0.0,1.0
1623676838.6875,0,0,2.3804527773834945,0.0,1.0
1623676839.15625,0,0,2.5809587335446067,0.0,1.0
1623676839.625,0,0,2.4661191621947447,0.0,1.0
1623676840.09375,0,0,2.2321044303540005,0.0,1.0
1623676840.5625,0,0,1.732007663643414,0.0,1.0
1623676841.03125,0,0,0.0,0.0,1.0
1623676841.5,0,0,4.5006979985592706,0.0,1.0
1623676841.96875,0,0,0.0,0.0,1.0
1623676842.4375,0,0,1.1875984979123397,0.0,1.0
1623676842.90625,0,0,2.021260822895457,0.0,1.0
1623676843.375,0,0,1.4966856317224742,0.0,1.0
1623676843.84375,0,0,1.7535296811996623,0.0,1.0
1623676844.3125,0,0,1.9483026494202804,0.0,1.0
1623676844.78125,0,0,2.2949264404412735,0.0,1.0
1623676845.25,0,0,2.4652196213443682,0.0,1.0
1623676845.71875,0,0,2.446362225806041,0.0,1.0
1623676846.1875,0,0,2.812529438862735,0.0,1.0
1623676846.65625,0,0,1.9613715560858618,0.0,1.0
1623676847.125,0,0,2.7948970664697916,0.0,1.0
1623676847.59375,0,0,1.5085367243990655,0.0,1.0
1623676848.0625,0,0,1.8896589500261523,0.0,1.0
1623676848.53125,0,0,0.0,0.0,1.0
1623676849.0,0,0,0.0,0.0,1.0
1623676849.46875,0,0,2.52545439600328,0.0,1.0
1623676849.9375,0,0,1.9824896680121595,0.0,1.0
1623676850.40625,0,0,2.3412072508554984,0.0,1.0
1623676850.875,0,0,1.522993575617906,0.0,1.0
1623676851.34375,0,0,2.4005674505384156,0.0,1.0
1623676851.8125,0,0,1.6613985464261845,0.0,1.0
1623676852.28125,0,0,2.078868110025633,0.0,1.0
1623676852.75,0,0,0.0,0.0,1.0
1623676853.21875,0,0,0.0,0.0,1.0
1623676853.6875,0,0,1.2367548082369921,0.0,1.0
1623676854.15625,0,0,1.2406344737843222,0.0,1.0
1623676854.625,0,0,2.6849257015303216,0.0,1.0
1623676855.09375,0,0,2.8300136965402065,0.0,1.0
1623676855.5625,0,0,1.4355743356484216,0.0,1.0
1623676856.03125,0,0,1.951021454004493,0.0,1.0
1623676856.5,0,0,2.0372137071937084,0.0,1.0
1623676856.96875,0,0,2.833364765380399,0.0,1.0
1623676857.4375,0,0,2.11945006453352,0.0,1.0
1623676857.90625,0,0,1.3711719397582716,0.0,1.0
1623676858.375,0,0,3.7910737175960043,0.0,1.0
1623676858.84375,0,0,1.9278434031841587,0.0,1.0
1623676859.3125,0,0,0.0,0.0,1.0
1623676859.78125,0,0,1.5284929819743716,0.0,1.0
1623676860.25,0,0,3.0718024062617997,0.0,1.0
1623676860.71875,0,0,1.3438964611245132,0.0,1.0
1623676861.1875,0,0,1.5850084031346865,0.0,1.0
1623676861.65625,0,0,2.3972742532983817,0.0,1.0
1623676862.125,0,0,2.7727200838816737,0.0,1.0
1623676862.59375,0,0,2.4984300034502986,0.0,1.0
1623676863.0625,0,0,1.4828484005925417,0.0,1.0
1623676863.53125,0,0,4.580323562179651,0.0,1.0
1623676864.0,0,0,0.0,0.0,1.0
1623676864.46875,0,0,2.052433732923834,0.0,1.0
1623676864.9375,0,0,1.0867979085040482,0.0,1.0
1623676865.40625,0,0,2.918409640916751,0.0,1.0
1623676865.875,0,0,5.38354992921366,0.0,1.0
1623676866.34375,0,0,2.1124301614809764,0.0,1.0
1623676866.8125,0,0,2.2084681362253464,0.0,1.0
1623676867.28125,0,0,3.5150960997281193,0.0,1.0
1623676867.75,0,0,0.0,0.0,1.0
1623676868.21875,0,0,8.033239951555316,0.0,1.0
1623676868.6875,0,0,3.952627182604727,0.0,1.0
1623676869.15625,0,0,-1.0375973399148988,0.0,1.0
1623676869.625,0,0,17.434689807295133,0.0,1.0
1623676870.09375,0,0,0.0,0.0,1.0
1623676870.5625,0,0,-3.5983534529886043,0.0,1.0
1623676871.03125,0,0,3.305546680368627,0.0,1.0
1623676871.5,0,0,0.7736134727170101,0.0,1.0
1623676871.96875,0,0,2.3800749617091186,0.0,1.0
1623676872.4375,0,0,2.1326546614315167,0.0,1.0
1623676872.90625,0,0,4.191716505446504,0.0,1.0
1623676873.375,0,0,0.461195587068201,0.0,1.0
1623676873.84375,0,0,7.261759629867009,0.0,1.0
1623676874.3125,0,0,0.0,0.0,1.0
1623676874.78125,0,0,3.2380613052397034,0.0,1.0
1623676875.25,0,0,3.4728801615600866,0.0,1.0
1623676875.71875,0,0,0.4230026543339732,0.0,1.0
1623676876.1875,0,0,3.562159732153474,0.0,1.0
1623676876.65625,0,0,1.644766008155959,0.0,1.0
1623676877.125,0,0,3.4002345472846343,0.0,1.0
1623676877.59375,0,0,1.7314350200212976,0.0,1.0
1623676878.0625,0,0,1.397974115425408,0.0,1.0
1623676878.53125,0,0,0.0,0.0,1.0
1623676879.0,0,0,0.0,0.0,1.0
1623676879.46875,0,0,1.3264652097693994,0.0,1.0
1623676879.9375,0,0,2.5622943159808274,0.0,1.0
1623676880.40625,0,0,1.3907548903490987,0.0,1.0
1623676880.875,0,0,1.7075846814771638,0.0,1.0
1623676881.34375,0,0,1.908171648806748,0.0,1.0
1623676881.8125,0,0,1.943685360858711,0.0,1.0
1623676882.28125,0,0,1.660949021642413,0.0,1.0
1623676882.75,0,0,0.0,0.0,1.0
1623676883.21875,0,0,0.0,0.0,1.0
1623676883.6875,0,0,0.0,0.0,1.0
1623676884.15625,0,0,3.4039579465905665,0.0,1.0
1623676884.625,0,0,2.4267548977252007,0.0,1.0
1623676885.09375,0,0,1.7225031172952145,0.0,1.0
1623676885.5625,0,0,0.4331041182809481,0.0,1.0
1623676886.03125,0,0,3.386888442194699,0.0,1.0
1623676886.5,0,0,2.5079607077445574,0.0,1.0
1623676886.96875,0,0,1.7607539087750228,0.0,1.0
1623676887.4375,0,0,2.96309033018332,0.0,1.0
1623676887.90625,0,0,2.115336257963817,0.0,1.0
1623676888.375,0,0,1.5463845823798985,0.0,1.0
1623676888.84375,0,0,5.014041428134435,0.0,1.0
1623676889.3125,0,0,3.096174744774576,0.0,1.0
1623676889.78125,0,0,1.1859157354226542,0.0,1.0
1623676890.25,0,0,1.3792702703484074,0.0,1.0
1623676890.71875,0,0,4.028178966418978,0.0,1.0
1623676891.1875,0,0,0.6773943510711878,0.0,1.0
1623676891.65625,0,0,3.2679290103813123,0.0,1.0
1623676892.125,0,0,0.0,0.0,1.0
1623676892.59375,0,0,1.588394110479675,0.0,1.0
1623676893.0625,0,0,2.7917874141608365,0.0,1.0
1623676893.53125,0,0,1.1672765871869826,0.0,1.0
1623676894.0,0,0,0.2795224894425982,0.0,1.0
1623676894.46875,0,0,2.9489541850713636,0.0,1.0
1623676894.9375,0,0,1.7060846032510817,0.0,1.0
1623676895.40625,0,0,2.042150568125691,0.0,1.0
1623676895.875,0,0,2.007132716267722,0.0,1.0
1623676896.34375,0,0,1.9226638479683515,0.0,1.0
1623676896.8125,0,0,1.9348609317467997,0.0,1.0
1623676897.28125,0,0,0.0,0.0,1.0
1623676897.75,0,0,1.7979988383553849,0.0,1.0
1623676898.21875,0,0,2.936050029781758,0.0,1.0
1623676898.6875,0,0,2.1845366241837656,0.0,1.0
1623676899.15625,0,0,1.8457857789834762,0.0,1.0
1623676899.625,0,0,3.369567519136745,0.0,1.0
1623676900.09375,0,0,0.6378934274077176,0.0,1.0
1623676900.5625,0,0,2.177046892068671,0.0,1.0
1623676901.03125,0,0,2.90346740811602,0.0,1.0
1623676901.5,0,0,2.61241742945416,0.0,1.0
1623676901.96875,0,0,1.771615025694284,0.0,1.0
1623676902.4375,0,0,0.0,0.0,1.0
1623676902.90625,0,0,0.0,0.0,1.0
1623676903.375,0,0,2.3564255898473814,0.0,1.0
1623676903.84375,0,0,3.0992657063032163,0.0,1.0
1623676904.3125,0,0,2.386666720746472,0.0,1.0
1623676904.78125,0,0,2.7002575660698347,0.0,1.0
1623676905.25,0,0,2.1846261041117185,0.0,1.0
1623676905.71875,0,0,2.0893739958842943,0.0,1.0
1623676906.1875,0,0,2.8479002920883056,0.0,1.0
1623676906.65625,0,0,1.7540531588435389,0.0,1.0
1623676907.125,0,0,1.5862911555004462,0.0,1.0
1623676907.59375,0,0,0.0,0.0,1.0
1623676908.0625,0,0,3.128172308966975,0.0,1.0
1623676908.53125,0,0,2.1691537053052676,0.0,1.0
1623676909.0,0,0,0.8261581938140683,0.0,1.0
1623676909.46875,0,0,2.794579738277166,0.0,1.0
1623676909.9375,0,0,3.459984822888968,0.0,1.0
1623676910.40625,0,0,1.9350076037340778,0.0,1.0
1623676910.875,0,0,2.4258766718196507,0.0,1.0
1623676911.34375,0,0,2.995473163589708,0.0,1.0
1623676911.8125,0,0,0.0,0.0,1.0
1623676912.28125,0,0,2.818169978921794,0.0,1.0
1623676912.75,0,0,2.9813277290833176,0.0,1.0
1623676913.21875,0,0,3.052022501098382,0.0,1.0
1623676913.6875,0,0,1.5030525956561775,0.0,1.0
1623676914.15625,0,0,1.4977415595654966,0.0,1.0
1623676914.625,0,0,2.3087101332945905,0.0,1.0
1623676915.09375,0,0,0.0,0.0,1.0
1623676915.5625,0,0,3.6375165267613134,0.0,1.0
1623676916.03125,0,0,2.5988240045601265,0.0,1.0
1623676916.5,0,0,1.9328523814654133,0.0,1.0
1623676916.96875,0,0,2.0115132424954036,0.0,1.0
1623676917.4375,0,0,2.431618598119019,0.0,1.0
1623676917.90625,0,0,1.844457425275931,0.0,1.0
1623676918.375,0,0,1.795620870967762,0.0,1.0
1623676918.84375,0,0,1.0658680089126764,0.0,1.0
1623676919.3125,0,0,0.0,0.0,1.0
1623676919.78125,0,0,2.1726296707311823,0.0,1.0
1623676920.25,0,0,2.9632147314427812,0.0,1.0
1623676920.71875,0,0,3.249502341799266,0.0,1.0
1623676921.1875,0,0,1.8332930044856592,0.0,1.0
1623676921.65625,0,0,3.3106093044928233,0.0,1.0
1623676922.125,0,0,2.003401785473686,0.0,1.0
1623676922.59375,0,0,0.0,0.0,1.0
1623676923.0625,0,0,2.576837640210314,0.0,1.0
1623676923.53125,0,0,2.3785096682152624,0.0,1.0
1623676924.0,0,0,2.0376848909424967,0.0,1.0
1623676924.46875,0,0,2.3492441736450287,0.0,1.0
1623676924.9375,0,0,2.644673021604964,0.0,1.0
1623676925.40625,0,0,2.3813656154131393,0.0,1.0
1623676925.875,0,0,0.0,0.0,1.0
1623676926.34375,0,0,1.695176001618409,0.0,1.0
1623676926.8125,0,0,1.8382647090935949,0.0,1.0
1623676927.28125,0,0,2.109461632480527,0.0,1.0
1623676927.75,0,0,3.5138866449665684,0.0,1.0
1623676928.21875,0,0,1.5131853784943985,0.0,1.0
1623676928.6875,0,0,3.045665276830864,0.0,1.0
1623676929.15625,0,0,2.7561123557263834,0.0,1.0
1623676929.625,0,0,0.0,0.0,1.0
1623676930.09375,0,0,1.1034058013864574,0.0,1.0
1623676930.5625,0,0,3.0680295014079886,0.0,1.0
1623676931.03125,0,0,1.3434920327708244,0.0,1.0
1623676931.5,0,0,1.951022130465885,0.0,1.0
1623676931.96875,0,0,3.693788286040672,0.0,1.0
1623676932.4375,0,0,1.6978805748692527,0.0,1.0
1623676932.90625,0,0,1.9602701695878653,0.0,1.0
1623676933.375,0,0,2.8662244837942783,0.0,1.0
1623676933.84375,0,0,0.0,0.0,1.0
1623676934.3125,0,0,0.3857069071120333,0.0,1.0
1623676934.78125,0,0,2.362927770136223,0.0,1.0
1623676935.25,0,0,2.5501830419547447,0.0,1.0
1623676935.71875,0,0,2.5279180103431798,0.0,1.0
1623676936.1875,0,0,2.157670792028384,0.0,1.0
1623676936.65625,0,0,2.455213425271535,0.0,1.0
1623676937.125,0,0,2.9023547650370856,0.0,1.0
1623676937.59375,0,0,0.0,0.0,1.0
1623676938.0625,0,0,4.912946331694399,0.0,1.0
1623676938.53125,0,0,1.5334856020733734,0.0,1.0
1623676939.0,0,0,2.4262387826324883,0.0,1.0
1623676939.46875,0,0,2.2020407750922364,0.0,1.0
1623676939.9375,0,0,0.0,0.0,1.0
1623676940.40625,0,0,4.362792177229589,0.0,1.0
1623676940.875,0,0,0.0,0.0,1.0
1623676941.34375,0,0,4.163413705756568,0.0,1.0
1623676941.8125,0,0,1.8270025457820245,0.0,1.0
1623676942.28125,0,0,1.7629202046169217,0.0,1.0
1623676942.75,0,0,2.704444108363979,0.0,1.0
1623676943.21875,0,0,0.7277116720811658,0.0,1.0
1623676943.6875,0,0,3.6349212349868636,0.0,1.0
1623676944.15625,0,0,2.192905023799335,0.0,1.0
1623676944.625,0,0,0.0,0.0,1.0
1623676945.09375,0,0,0.0,0.0,1.0
1623676945.5625,0,0,3.114104568684516,0.0,1.0
1623676946.03125,0,0,1.8679244813543563,0.0,1.0
1623676946.5,0,0,2.5956633695199813,0.0,1.0
1623676946.96875,0,0,2.359076684203934,0.0,1.0
1623676947.4375,0,0,0.9489849096756297,0.0,1.0
1623676947.90625,0,0,2.0361932511780774,0.0,1.0
1623676948.375,0,0,0.0,0.0,1.0
1623676948.84375,0,0,2.987296233887995,0.0,1.0
1623676949.3125,0,0,1.8440825199045934,0.0,1.0
1623676949.78125,0,0,3.235397855282634,0.0,1.0
1623676950.25,0,0,1.6435800331216148,0.0,1.0
1623676950.71875,0,0,2.151704900768943,0.0,1.0
1623676951.1875,0,0,1.7994128941925769,0.0,1.0
1623676951.65625,0,0,1.3274338225407571,0.0,1.0
1623676952.125,0,0,3.7157404878303897,0.0,1.0
1623676952.59375,0,0,0.0,0.0,1.0
1623676953.0625,0,0,1.776507135433452,0.0,1.0
1623676953.53125,0,0,2.7106385453569892,0.0,1.0
1623676954.0,0,0,2.9003425960486386,0.0,1.0
1623676954.46875,0,0,1.7477444730641722,0.0,1.0
1623676954.9375,0,0,2.4051980165359232,0.0,1.0
1623676955.40625,0,0,2.508879985242287,0.0,1.0
1623676955.875,0,0,0.0,0.0,1.0
1623676956.34375,0,0,1.682063758054086,0.0,1.0
1623676956.8125,0,0,2.5050577248425983,0.0,1.0
1623676957.28125,0,0,3.124284739354235,0.0,1.0
1623676957.75,0,0,1.568955546435494,0.0,1.0
1623676958.21875,0,0,3.0415252355928217,0.0,1.0
1623676958.6875,0,0,2.3307504094387292,0.0,1.0
1623676959.15625,0,0,0.0,0.0,1.0
1623676959.625,0,0,0.0,0.0,1.0
1623676960.09375,0,0,1.643599794396096,0.0,1.0
1623676960.5625,0,0,2.1474318031185233,0.0,1.0
1623676961.03125,0,0,1.8338786001628686,0.0,1.0
1623676961.5,0,0,2.3375957177985915,0.0,1.0
1623676961.96875,0,0,2.564698865347497,0.0,1.0
1623676962.4375,0,0,2.3259756503709847,0.0,1.0
1623676962.90625,0,0,0.6562221433477646,0.0,1.0
1623676963.375,0,0,1.237276458401993,0.0,1.0
1623676963.84375,0,0,3.3428559263987343,0.0,1.0
1623676964.3125,0,0,1.4272713514387256,0.0,1.0
1623676964.78125,0,0,3.040495310176281,0.0,1.0
1623676965.25,0,0,2.0818467029088406,0.0,1.0
1623676965.71875,0,0,0.0,0.0,1.0
1623676966.1875,0,0,2.7551155791285695,0.0,1.0
1623676966.65625,0,0,2.0523798284879318,0.0,1.0
1623676967.125,0,0,1.5697380750820873,0.0,1.0
1623676967.59375,0,0,2.4006539902938195,0.0,1.0
1623676968.0625,0,0,1.7381393617941097,0.0,1.0
1623676968.53125,0,0,1.9665409633037214,0.0,1.0
1623676969.0,0,0,2.01556039205724,0.0,1.0
1623676969.46875,0,0,1.927714482276339,0.0,1.0
1623676969.9375,0,0,0.0,0.0,1.0
1623676970.40625,0,0,3.3574748242508345,0.0,1.0
1623676970.875,0,0,1.8990414056309566,0.0,1.0
1623676971.34375,0,0,2.1499090888792987,0.0,1.0
1623676971.8125,0,0,1.7724649684398022,0.0,1.0
1623676972.28125,0,0,2.0496873582282595,0.0,1.0
1623676972.75,0,0,1.5695591958650044,0.0,1.0
1623676973.21875,0,0,1.292985605257466,0.0,1.0
1623676973.6875,0,0,1.7295995058309586,0.0,1.0
1623676974.15625,0,0,2.5402206301148573,0.0,1.0
1623676974.625,0,0,0.0,0.0,1.0
1623676975.09375,0,0,0.0,0.0,1.0
1623676975.5625,0,0,2.0236149517899693,0.0,1.0
1623676976.03125,0,0,3.1836599751212544,0.0,1.0
1623676976.5,0,0,2.464389274720168,0.0,1.0
1623676976.96875,0,0,2.3744647889705495,0.0,1.0
1623676977.4375,0,0,1.677414127893379,0.0,1.0
1623676977.90625,0,0,2.6081784718621384,0.0,1.0
1623676978.375,0,0,0.0,0.0,1.0
1623676978.84375,0,0,0.0,0.0,1.0
1623676979.3125,0,0,2.5128688141585447,0.0,1.0
1623676979.78125,0,0,1.3590821020369748,0.0,1.0
1623676980.25,0,0,1.0663492557343162,0.0,1.0
1623676980.71875,0,0,2.631828786297107,0.0,1.0
1623676981.1875,0,0,1.8898324569797154,0.0,1.0
1623676981.65625,0,0,1.5814791512924644,0.0,1.0
1623676982.125,0,0,1.8817119306728622,0.0,1.0
1623676982.59375,0,0,0.0,0.0,1.0
1623676983.0625,0,0,2.4421256417869888,0.0,1.0
1623676983.53125,0,0,2.1138127042024086,0.0,1.0
1623676984.0,0,0,2.1739067350061236,0.0,1.0
1623676984.46875,0,0,1.5904363872814,0.0,1.0
1623676984.9375,0,0,1.9452533638940872,0.0,1.0
1623676985.40625,0,0,2.4733858070200068,0.0,1.0
1623676985.875,0,0,1.4703015163375144,0.0,1.0
1623676986.34375,0,0,0.18316863643979447,0.0,1.0
1623676986.8125,0,0,4.086795453660861,0.0,1.0
1623676987.28125,0,0,0.6772006884448489,0.0,1.0
1623676987.75,0,0,3.317818493082896,0.0,1.0
1623676988.21875,0,0,1.8078600643925125,0.0,1.0
1623676988.6875,0,0,2.253450926508668,0.0,1.0
1623676989.15625,0,0,0.0,0.0,1.0
1623676989.625,0,0,0.8329149898189038,0.0,1.0
1623676990.09375,0,0,2.494282169197753,0.0,1.0
1623676990.5625,0,0,2.257301785450014,0.0,1.0
1623676991.03125,0,0,2.5546278751770903,0.0,1.0
1623676991.5,0,0,1.2894684090635598,0.0,1.0
1623676991.96875,0,0,0.0,0.0,1.0
1623676992.4375,0,0,2.177174502963571,0.0,1.0
1623676992.90625,0,0,1.8055852167875057,0.0,1.0
1623676993.375,0,0,2.2296954235348467,0.0,1.0
1623676993.84375,0,0,1.8909759647825342,0.0,1.0
1623676994.3125,0,0,2.4901806915474105,0.0,1.0
1623676994.78125,0,0,1.4927419453895878,0.0,1.0
1623676995.25,0,0,0.0,0.0,1.0
1623676995.71875,0,0,2.0618736305675474,0.0,1.0
1623676996.1875,0,0,2.126072305759055,0.0,1.0
1623676996.65625,0,0,1.4240050307217589,0.0,1.0
1623676997.125,0,0,1.4790509332007766,0.0,1.0
1623676997.59375,0,0,2.3567831265530623,0.0,1.0
1623676998.0625,0,0,0.0,0.0,1.0
1623676998.53125,0,0,2.591052832143027,0.0,1.0
1623676999.0,0,0,2.3018714583296163,0.0,1.0
1623676999.46875,0,0,1.8829703355100962,0.0,1.0
1623676999.9375,0,0,2.3902693000696775,0.0,1.0
1623677000.40625,0,0,2.3938335815777267,0.0,1.0
1623677000.875,0,0,5.826569194550406,0.0,1.0
1623677001.34375,0,0,1.4966346424550934,0.0,1.0
1623677001.8125,0,0,0.0,0.0,1.0
1623677002.28125,0,0,3.1247585241751685,0.0,1.0
1623677002.75,0,0,0.9820855620896588,0.0,1.0
1623677003.21875,0,0,2.1934538095587883,0.0,1.0
1623677003.6875,0,0,2.7787420921978248,0.0,1.0
1623677004.15625,0,0,2.470144802344988,0.0,1.0
1623677004.625,0,0,2.4979971718093528,0.0,1.0
1623677005.09375,0,0,1.1332211109961066,0.0,1.0
1623677005.5625,0,0,3.0348279486250864,0.0,1.0
1623677006.03125,0,0,2.120564473517753,0.0,1.0
1623677006.5,0,0,1.9621949471995428,0.0,1.0
1623677006.96875,0,0,2.7155783268581475,0.0,1.0
1623677007.4375,0,0,2.2751186976617643,0.0,1.0
1623677007.90625,0,0,1.5889590419836375,0.0,1.0
1623677008.375,0,0,1.5983473072474998,0.0,1.0
1623677008.84375,0,0,2.3024461627604276,0.0,1.0
1623677009.3125,0,0,1.6043815796950074,0.0,1.0
1623677009.78125,0,0,2.226858181674169,0.0,1.0
1623677010.25,0,0,1.845384881858852,0.0,1.0
1623677010.71875,0,0,1.4100954976755251,0.0,1.0
1623677011.1875,0,0,2.506685714515356,0.0,1.0
1623677011.65625,0,0,2.6406133303427706,0.0,1.0
1623677012.125,0,0,0.0,0.0,1.0
1623677012.59375,0,0,1.8003071993357502,0.0,1.0
1623677013.0625,0,0,1.4040553138223628,0.0,1.0
1623677013.53125,0,0,1.713970145513123,0.0,1.0
1623677014.0,0,0,1.5904233572774709,0.0,1.0
1623677014.46875,0,0,6.341836013953125,0.0,1.0
1623677014.9375,0,0,0.9158493272216556,0.0,1.0
1623677015.40625,0,0,1.1457056578563676,0.0,1.0
1623677015.875,0,0,2.0601699350994447,0.0,1.0
1623677016.34375,0,0,1.9710307596838312,0.0,1.0
1623677016.8125,0,0,2.443931825255435,0.0,1.0
1623677017.28125,0,0,1.9426856647854838,0.0,1.0
1623677017.75,0,0,2.415294487293992,0.0,1.0
1623677018.21875,0,0,0.0,0.0,1.0
1623677018.6875,0,0,3.4137186457956825,0.0,1.0
1623677019.15625,0,0,2.2468087310773517,0.0,1.0
1623677019.625,0,0,2.092570478469569,0.0,1.0
1623677020.09375,0,0,3.1816008752065175,0.0,1.0
1623677020.5625,0,0,1.5258782717568296,0.0,1.0
1623677021.03125,0,0,1.11103320026722,0.0,1.0
1623677021.5,0,0,2.2963999942714017,0.0,1.0
1623677021.96875,0,0,2.469674312938689,0.0,1.0
1623677022.4375,0,0,2.3319893625398858,0.0,1.0
1623677022.90625,0,0,0.0,0.0,1.0
1623677023.375,0,0,1.576756383941907,0.0,1.0
1623677023.84375,0,0,2.455096147674997,0.0,1.0
1623677024.3125,0,0,1.81340752351799,0.0,1.0
1623677024.78125,0,0,1.827268602852859,0.0,1.0
1623677025.25,0,0,0.0,0.0,1.0
1623677025.71875,0,0,1.5106630094641953,0.0,1.0
1623677026.1875,0,0,2.3727132514035634,0.0,1.0
1623677026.65625,0,0,1.282425968445616,0.0,1.0
1623677027.125,0,0,1.2610989657789133,0.0,1.0
1623677027.59375,0,0,1.766013676583264,0.0,1.0
1623677028.0625,0,0,1.4839130748615401,0.0,1.0
1623677028.53125,0,0,0.8810479695693662,0.0,1.0
1623677029.0,0,0,0.16521593480795108,0.0,1.0
1623677029.46875,0,0,1.3893294184970153,0.0,1.0
1623677029.9375,0,0,1.5059861004692967,0.0,1.0
1623677030.40625,0,0,2.508071720644629,0.0,1.0
1623677030.875,0,0,1.1358525891715716,0.0,1.0
1623677031.34375,0,0,1.435185787000543,0.0,1.0
1623677031.8125,0,0,1.212996288432422,0.0,1.0
1623677032.28125,0,0,1.9792443917087565,0.0,1.0
1623677032.75,0,0,1.0290851129258975,0.0,1.0
1623677033.21875,0,0,0.5862527357999777,0.0,1.0
1623677033.6875,0,0,1.7235947396380402,0.0,1.0
1623677034.15625,0,0,1.2992933162596862,0.0,1.0
1623677034.625,0,0,1.5109631470413611,0.0,1.0
1623677035.09375,0,0,2.7605220827676016,0.0,1.0
1623677035.5625,0,0,1.9519968064349267,0.0,1.0
1623677036.03125,0,0,0.0,0.0,1.0
1623677036.5,0,0,7.255408955899335,0.0,1.0
1623677036.96875,0,0,0.0,0.0,1.0
1623677037.4375,0,0,0.0,0.0,1.0
1623677037.90625,0,0,11.508295305936205,0.0,1.0
1623677038.375,0,0,-0.35659250455246644,0.0,1.0
1623677038.84375,0,0,1.4759336996043406,0.0,1.0
1623677039.3125,0,0,2.270638279178421,0.0,1.0
1623677039.78125,0,0,2.597864715490981,0.0,1.0
1623677040.25,0,0,1.3579984200889532,0.0,1.0
1623677040.71875,0,0,1.1421286572715006,0.0,1.0
1623677041.1875,0,0,2.3068654347961597,0.0,1.0
1623677041.65625,0,0,0.6354208036610356,0.0,1.0
1623677042.125,0,0,1.00888434812497,0.0,1.0
1623677042.59375,0,0,1.9075832165827082,0.0,1.0
1623677043.0625,0,0,4.0931327506494295,0.0,1.0
1623677043.53125,0,0,0.027354975058580342,0.0,1.0
1623677044.0,0,0,0.8202944984925807,0.0,1.0
1623677044.46875,0,0,3.905351025110011,0.0,1.0
1623677044.9375,0,0,0.0,0.0,1.0
1623677045.40625,0,0,1.6632330099972714,0.0,1.0
1623677045.875,0,0,2.080932774696561,0.0,1.0
1623677046.34375,0,0,2.933276571417944,0.0,1.0
1623677046.8125,0,0,0.3972511698794565,0.0,1.0
1623677047.28125,0,0,5.60111211489079,0.0,1.0
1623677047.75,0,0,0.0,0.0,1.0
1623677048.21875,0,0,3.212791607432787,0.0,1.0
1623677048.6875,0,0,1.718537887571107,0.0,1.0
1623677049.15625,0,0,2.78588582459001,0.0,1.0
1623677049.625,0,0,0.8447555702560202,0.0,1.0
1623677050.09375,0,0,1.4066724151030263,0.0,1.0
1623677050.5625,0,0,2.1375177912743593,0.0,1.0
1623677051.03125,0,0,0.6011233861029283,0.0,1.0
1623677051.5,0,0,2.8086899617609515,0.0,1.0
1623677051.96875,0,0,1.935719719686036,0.0,1.0
1623677052.4375,0,0,2.85237975019793,0.0,1.0
1623677052.90625,0,0,1.504818342354418,0.0,1.0
1623677053.375,0,0,1.6117264036763375,0.0,1.0
1623677053.84375,0,0,1.910197705855058,0.0,1.0
1623677054.3125,0,0,0.0,0.0,1.0
1623677054.78125,0,0,1.4253708702855292,0.0,1.0
1623677055.25,0,0,1.5138701132745067,0.0,1.0
1623677055.71875,0,0,1.2496169776926394,0.0,1.0
1623677056.1875,0,0,1.6167916086045155,0.0,1.0
1623677056.65625,0,0,1.494927923673534,0.0,1.0
1623677057.125,0,0,3.6728753835973196,0.0,1.0
1623677057.59375,0,0,0.9262368972909403,0.0,1.0
1623677058.0625,0,0,1.1650150604635308,0.0,1.0
1623677058.53125,0,0,2.2688617435922915,0.0,1.0
1623677059.0,0,0,2.627303759909591,0.0,1.0
1623677059.46875,0,0,-0.1376976719933274,0.0,1.0
1623677059.9375,0,0,11.183468579387956,0.0,1.0
1623677060.40625,0,0,0.0,0.0,1.0
1623677060.875,0,0,0.8769323398749584,0.0,1.0
1623677061.34375,0,0,1.864807444736773,0.0,1.0
1623677061.8125,0,0,2.344142563862267,0.0,1.0
1623677062.28125,0,0,1.673319770612986,0.0,1.0
1623677062.75,0,0,8.986550881356257,0.0,1.0
1623677063.21875,0,0,0.0,0.0,1.0
1623677063.6875,0,0,1.5780382300392006,0.0,1.0
1623677064.15625,0,0,2.3722077365194805,0.0,1.0
1623677064.625,0,0,1.8680115121734955,0.0,1.0
1623677065.09375,0,0,2.188207303966552,0.0,1.0
1623677065.5625,0,0,2.5985937737072216,0.0,1.0
1623677066.03125,0,0,1.9489967239996278,0.0,1.0
1623677066.5,0,0,0.8478470535342926,0.0,1.0
1623677066.96875,0,0,3.0472086507926606,0.0,1.0
1623677067.4375,0,0,0.0,0.0,1.0
1623677067.90625,0,0,2.0391673343363586,0.0,1.0
1623677068.375,0,0,2.74983738570858,0.0,1.0
1623677068.84375,0,0,2.1611204643472726,0.0,1.0
1623677069.3125,0,0,2.127557626350762,0.0,1.0
1623677069.78125,0,0,1.4952129009788429,0.0,1.0
1623677070.25,0,0,1.80438377419015,0.0,1.0
1623677070.71875,0,0,2.4796203344011567,0.0,1.0
1623677071.1875,0,0,1.8683798420319215,0.0,1.0
1623677071.65625,0,0,0.5870974865633901,0.0,1.0
1623677072.125,0,0,2.2328869125025346,0.0,1.0
1623677072.59375,0,0,1.6397594990742108,0.0,1.0
1623677073.0625,0,0,1.4392712279569468,0.0,1.0
1623677073.53125,0,0,1.7906667598326318,0.0,1.0
1623677074.0,0,0,2.494537200429905,0.0,1.0
1623677074.46875,0,0,2.5904244919610857,0.0,1.0
1623677074.9375,0,0,2.9927564326506353,0.0,1.0
1623677075.40625,0,0,2.446987825328475,0.0,1.0
1623677075.875,0,0,0.0,0.0,1.0
1623677076.34375,0,0,0.0,0.0,1.0
1623677076.8125,0,0,1.922910454310104,0.0,1.0
1623677077.28125,0,0,1.7197115751643575,0.0,1.0
1623677077.75,0,0,1.5561573749183566,0.0,1.0
1623677078.21875,0,0,0.8534745841222451,0.0,1.0
1623677078.6875,0,0,2.1321425815545925,0.0,1.0
1623677079.15625,0,0,2.3408459346505603,0.0,1.0
1623677079.625,0,0,1.579128044244496,0.0,1.0
1623677080.09375,0,0,1.55642987377741,0.0,1.0
1623677080.5625,0,0,1.5725399037128867,0.0,1.0
1623677081.03125,0,0,2.5685835337322573,0.0,1.0
1623677081.5,0,0,3.270193927237296,0.0,1.0
1623677081.96875,0,0,0.8127387241214816,0.0,1.0
1623677082.4375,0,0,0.6325104590787003,0.0,1.0
1623677082.90625,0,0,0.0,0.0,1.0
1623677083.375,0,0,2.0993300307500133,0.0,1.0
1623677083.84375,0,0,1.9373726656258452,0.0,1.0
1623677084.3125,0,0,2.156043596622143,0.0,1.0
1623677084.78125,0,0,0.0,0.0,1.0
1623677085.25,0,0,0.0,0.0,1.0
1623677085.71875,0,0,2.429643454858842,0.0,1.0
1623677086.1875,0,0,1.7062392468133827,0.0,1.0
1623677086.65625,0,0,1.5353268950114658,0.0,1.0
1623677087.125,0,0,2.16221446046188,0.0,1.0
1623677087.59375,0,0,1.5900707879827767,0.0,1.0
1623677088.0625,0,0,1.4783994383442682,0.0,1.0
1623677088.53125,0,0,1.2795573967743779,0.0,1.0
1623677089.0,0,0,0.7834920206840135,0.0,1.0
1623677089.46875,0,0,2.2263246672164008,0.0,1.0
1623677089.9375,0,0,1.9366138393511958,0.0,1.0
1623677090.40625,0,0,2.462634317589855,0.0,1.0
1623677090.875,0,0,0.0,0.0,1.0
1623677091.34375,0,0,2.277398950901066,0.0,1.0
1623677091.8125,0,0,1.42009844128995,0.0,1.0
1623677092.28125,0,0,2.5720777045700007,0.0,1.0
1623677092.75,0,0,2.209375843342834,0.0,1.0
1623677093.21875,0,0,0.0,0.0,1.0
1623677093.6875,0,0,0.0,0.0,1.0
1623677094.15625,0,0,2.136930294871577,0.0,1.0
1623677094.625,0,0,2.744209946177745,0.0,1.0
1623677095.09375,0,0,2.0545870034408242,0.0,1.0
1623677095.5625,0,0,1.6348772459733136,0.0,1.0
1623677096.03125,0,0,0.0,0.0,1.0
1623677096.5,0,0,2.5801436465605883,0.0,1.0
1623677096.96875,0,0,2.0588618830282517,0.0,1.0
1623677097.4375,0,0,2.7943933304236737,0.0,1.0
1623677097.90625,0,0,2.2384504060270602,0.0,1.0
1623677098.375,0,0,0.0,0.0,1.0
1623677098.84375,0,0,2.1840940181798985,0.0,1.0
1623677099.3125,0,0,1.525816742270669,0.0,1.0
1623677099.78125,0,0,1.9301766073046929,0.0,1.0
1623677100.25,0,0,1.966263007721358,0.0,1.0
1623677100.71875,0,0,1.0598195311799217,0.0,1.0
1623677101.1875,0,0,1.6500563691241195,0.0,1.0
1623677101.65625,0,0,1.8901351545096712,0.0,1.0
1623677102.125,0,0,1.7085603337892825,0.0,1.0
1623677102.59375,0,0,2.8456799205486667,0.0,1.0
1623677103.0625,0,0,0.0,0.0,1.0
1623677103.53125,0,0,0.0,0.0,1.0
1623677104.0,0,0,3.026412670492692,0.0,1.0
1623677104.46875,0,0,2.2829158315424816,0.0,1.0
1623677104.9375,0,0,1.991803707616157,0.0,1.0
1623677105.40625,0,0,1.09829264766969,0.0,1.0
1623677105.875,0,0,2.370258226615221,0.0,1.0
1623677106.34375,0,0,2.3007625352340546,0.0,1.0
1623677106.8125,0,0,2.1187740335699026,0.0,1.0
1623677107.28125,0,0,2.4866771166395405,0.0,1.0
1623677107.75,0,0,0.0,0.0,1.0
1623677108.21875,0,0,1.3638090705871908,0.0,1.0
1623677108.6875,0,0,2.0502174299043987,0.0,1.0
1623677109.15625,0,0,2.310315346163567,0.0,1.0
1623677109.625,0,0,2.3960924443708698,0.0,1.0
1623677110.09375,0,0,0.0,0.0,1.0
1623677110.5625,0,0,2.091266135004482,0.0,1.0
1623677111.03125,0,0,1.7391265679956978,0.0,1.0
1623677111.5,0,0,2.5946468934839624,0.0,1.0
1623677111.96875,0,0,1.9070730315153848,0.0,1.0
1623677112.4375,0,0,2.6075001635484716,0.0,1.0
1623677112.90625,0,0,2.3349398469381257,0.0,1.0
1623677113.375,0,0,0.7239019610632517,0.0,1.0
1623677113.84375,0,0,1.3179789822152577,0.0,1.0
1623677114.3125,0,0,1.8778364892568244,0.0,1.0
1623677114.78125,0,0,2.6620566721269103,0.0,1.0
1623677115.25,0,0,2.5202739803116683,0.0,1.0
1623677115.71875,0,0,0.0,0.0,1.0
1623677116.1875,0,0,2.366710441340101,0.0,1.0
1623677116.65625,0,0,1.2266300624792297,0.0,1.0
1623677117.125,0,0,2.21364135870639,0.0,1.0
1623677117.59375,0,0,1.7282167003016033,0.0,1.0
1623677118.0625,0,0,1.726074252418206,0.0,1.0
1623677118.53125,0,0,2.165220715004858,0.0,1.0
1623677119.0,0,0,1.4672114889866334,0.0,1.0
1623677119.46875,0,0,0.7577737595286459,0.0,1.0
1623677119.9375,0,0,0.9948037555386264,0.0,1.0
1623677120.40625,0,0,1.8196617343389758,0.0,1.0
1623677120.875,0,0,1.9338353815941944,0.0,1.0
1623677121.34375,0,0,2.5075462512389697,0.0,1.0
1623677121.8125,0,0,0.0,0.0,1.0
1623677122.28125,0,0,1.3873733377026192,0.0,1.0
1623677122.75,0,0,2.3071216819757177,0.0,1.0
1623677123.21875,0,0,2.0791674174514427,0.0,1.0
1623677123.6875,0,0,2.427448060271089,0.0,1.0
1623677124.15625,0,0,0.9429617136434956,0.0,1.0
1623677124.625,0,0,0.0,0.0,1.0
1623677125.09375,0,0,3.3313084936292214,0.0,1.0
1623677125.5625,0,0,1.6478749587299326,0.0,1.0
1623677126.03125,0,0,2.5860710010320953,0.0,1.0
1623677126.5,0,0,2.2154819540065667,0.0,1.0
1623677126.96875,0,0,3.0138512765522827,0.0,1.0
1623677127.4375,0,0,0.0,0.0,1.0
1623677127.90625,0,0,0.0,0.0,1.0
1623677128.375,0,0,1.7902176151914584,0.0,1.0
1623677128.84375,0,0,1.5736371516377732,0.0,1.0
1623677129.3125,0,0,2.303177957165737,0.0,1.0
1623677129.78125,0,0,0.0,0.0,1.0
1623677130.25,0,0,1.4629034553680087,0.0,1.0
1623677130.71875,0,0,0.9969420670767527,0.0,1.0
1623677131.1875,0,0,2.604120644720092,0.0,1.0
1623677131.65625,0,0,2.714471487532066,0.0,1.0
1623677132.125,0,0,2.2558740600364833,0.0,1.0
1623677132.59375,0,0,2.2139643894527765,0.0,1.0
1623677133.0625,0,0,1.0236735428267056,0.0,1.0
1623677133.53125,0,0,2.4703863660572445,0.0,1.0
1623677134.0,0,0,1.86737191125966,0.0,1.0
1623677134.46875,0,0,2.555074799220662,0.0,1.0
1623677134.9375,0,0,1.9898178072380355,0.0,1.0
1623677135.40625,0,0,1.9354029567401867,0.0,1.0
1623677135.875,0,0,0.0,0.0,1.0
1623677136.34375,0,0,1.8281345810229195,0.0,1.0
1623677136.8125,0,0,2.0953909114507816,0.0,1.0
1623677137.28125,0,0,2.2071210739833402,0.0,1.0
1623677137.75,0,0,1.3668134099792446,0.0,1.0
1623677138.21875,0,0,1.0992227422722858,0.0,1.0
1623677138.6875,0,0,2.4759574689397867,0.0,1.0
1623677139.15625,0,0,1.5523574365556636,0.0,1.0
1623677139.625,0,0,1.3162749114592838,0.0,1.0
1623677140.09375,0,0,2.1345099565194734,0.0,1.0
1623677140.5625,0,0,2.9530724942022943,0.0,1.0
1623677141.03125,0,0,2.883547746497918,0.0,1.0
1623677141.5,0,0,1.819230227050025,0.0,1.0
1623677141.96875,0,0,2.212209792911695,0.0,1.0
1623677142.4375,0,0,0.0,0.0,1.0
1623677142.90625,0,0,2.128216380871912,0.0,1.0
1623677143.375,0,0,2.0151631844939972,0.0,1.0
1623677143.84375,0,0,1.94142299043604,0.0,1.0
1623677144.3125,0,0,2.3842652344170263,0.0,1.0
1623677144.78125,0,0,0.0,0.0,1.0
1623677145.25,0,0,2.3229641783033688,0.0,1.0
1623677145.71875,0,0,3.0982877027324927,0.0,1.0
1623677146.1875,0,0,1.3521360081013083,0.0,1.0
1623677146.65625,0,0,2.722524823598138,0.0,1.0
1623677147.125,0,0,1.5753916098551173,0.0,1.0
1623677147.59375,0,0,0.0,0.0,1.0
1623677148.0625,0,0,1.6459760320945194,0.0,1.0
1623677148.53125,0,0,2.503423145395569,0.0,1.0
1623677149.0,0,0,1.8265187632500262,0.0,1.0
1623677149.46875,0,0,1.5172083363690314,0.0,1.0
1623677149.9375,0,0,1.3346562863008826,0.0,1.0
1623677150.40625,0,0,1.5782800796602054,0.0,1.0
1623677150.875,0,0,1.6467190439163633,0.0,1.0
1623677151.34375,0,0,2.511501862612574,0.0,1.0
1623677151.8125,0,0,1.5692104189177232,0.0,1.0
1623677152.28125,0,0,1.85983323936528,0.0,1.0
1623677152.75,0,0,2.837933677260725,0.0,1.0
1623677153.21875,0,0,0.1562853369501703,0.0,1.0
1623677153.6875,0,0,3.0002297783258114,0.0,1.0
1623677154.15625,0,0,1.6585894468389928,0.0,1.0
1623677154.625,0,0,1.8585473533528514,0.0,1.0
1623677155.09375,0,0,1.8974208173324176,0.0,1.0
1623677155.5625,0,0,0.7589986410973663,0.0,1.0
1623677156.03125,0,0,0.0,0.0,1.0
1623677156.5,0,0,4.026533583583885,0.0,1.0
1623677156.96875,0,0,2.2584346373999806,0.0,1.0
1623677157.4375,0,0,2.017257717760673,0.0,1.0
1623677157.90625,0,0,2.1146505550143746,0.0,1.0
1623677158.375,0,0,2.062725037504702,0.0,1.0
1623677158.84375,0,0,0.0,0.0,1.0
1623677159.3125,0,0,1.410191924539892,0.0,1.0
1623677159.78125,0,0,2.075741911079772,0.0,1.0
1623677160.25,0,0,1.7118316831736846,0.0,1.0
1623677160.71875,0,0,1.5817106704530515,0.0,1.0
1623677161.1875,0,0,1.5674980609927032,0.0,1.0
1623677161.65625,0,0,1.6329744633536758,0.0,1.0
1623677162.125,0,0,2.4473983770250265,0.0,1.0
1623677162.59375,0,0,2.3343992998150647,0.0,1.0
1623677163.0625,0,0,2.1029418824392336,0.0,1.0
1623677163.53125,0,0,2.208022346012674,0.0,1.0
1623677164.0,0,0,2.9437445896532677,0.0,1.0
1623677164.46875,0,0,1.0609223110687163,0.0,1.0
1623677164.9375,0,0,2.0795392032111595,0.0,1.0
1623677165.40625,0,0,1.785807607379527,0.0,1.0
1623677165.875,0,0,2.8460279985005745,0.0,1.0
1623677166.34375,0,0,2.278267202302358,0.0,1.0
1623677166.8125,0,0,1.8555242748266834,0.0,1.0
1623677167.28125,0,0,0.0,0.0,1.0
1623677167.75,0,0,1.5996554674461394,0.0,1.0
1623677168.21875,0,0,1.7688268771022058,0.0,1.0
1623677168.6875,0,0,2.500152951764832,0.0,1.0
1623677169.15625,0,0,3.429237336445291,0.0,1.0
1623677169.625,0,0,0.0,0.0,1.0
1623677170.09375,0,0,1.8851709895054563,0.0,1.0
1623677170.5625,0,0,1.879877486571438,0.0,1.0
1623677171.03125,0,0,1.7469817387934192,0.0,1.0
1623677171.5,0,0,0.0,0.0,1.0
1623677171.96875,0,0,0.0,0.0,1.0
1623677172.4375,0,0,2.344243130736327,0.0,1.0
1623677172.90625,0,0,2.0558490519879853,0.0,1.0
1623677173.375,0,0,2.020168769700376,0.0,1.0
1623677173.84375,0,0,3.024688609112059,0.0,1.0
1623677174.3125,0,0,2.1182775031830103,0.0,1.0
1623677174.78125,0,0,0.0,0.0,1.0
1623677175.25,0,0,2.137740058004216,0.0,1.0
1623677175.71875,0,0,2.6949041556838176,0.0,1.0
1623677176.1875,0,0,2.2590019425301664,0.0,1.0
1623677176.65625,0,0,1.249853222158369,0.0,1.0
1623677177.125,0,0,2.2694580031287366,0.0,1.0
1623677177.59375,0,0,1.3315335460579907,0.0,1.0
1623677178.0625,0,0,1.0763737485122433,0.0,1.0
1623677178.53125,0,0,1.7036629003690442,0.0,1.0
1623677179.0,0,0,1.4736273577539403,0.0,1.0
1623677179.46875,0,0,1.9446926631588768,0.0,1.0
1623677179.9375,0,0,2.292983022155934,0.0,1.0
1623677180.40625,0,0,2.5429209617270194,0.0,1.0
1623677180.875,0,0,3.2258464068115082,0.0,1.0
1623677181.34375,0,0,1.4326705008607368,0.0,1.0
1623677181.8125,0,0,1.50491147609101,0.0,1.0
1623677182.28125,0,0,1.2354261817231602,0.0,1.0
1623677182.75,0,0,1.9058535980665172,0.0,1.0
1623677183.21875,0,0,0.0,0.0,1.0
1623677183.6875,0,0,0.0,0.0,1.0
1623677184.15625,0,0,1.4217210530995874,0.0,1.0
1623677184.625,0,0,2.3403441861591694,0.0,1.0
1623677185.09375,0,0,2.7796548847190765,0.0,1.0
1623677185.5625,0,0,2.8100352015677807,0.0,1.0
1623677186.03125,0,0,0.0,0.0,1.0
1623677186.5,0,0,1.2802849497569624,0.0,1.0
1623677186.96875,0,0,2.5757475738907187,0.0,1.0
1623677187.4375,0,0,2.1661347890963683,0.0,1.0
1623677187.90625,0,0,1.4123974583560959,0.0,1.0
1623677188.375,0,0,2.462549960138572,0.0,1.0
1623677188.84375,0,0,0.0,0.0,1.0
1623677189.3125,0,0,1.877821530670662,0.0,1.0
1623677189.78125,0,0,2.6559878662926404,0.0,1.0
1623677190.25,0,0,2.1772516078081154,0.0,1.0
1623677190.71875,0,0,2.0203154581288816,0.0,1.0
1623677191.1875,0,0,1.6189401233930198,0.0,1.0
1623677191.65625,0,0,1.6383969022097904,0.0,1.0
1623677192.125,0,0,1.6514481732344648,0.0,1.0
1623677192.59375,0,0,0.9381429706679091,0.0,1.0
1623677193.0625,0,0,1.0688541962087514,0.0,1.0
1623677193.53125,0,0,1.891725360796823,0.0,1.0
1623677194.0,0,0,1.3088106913145126,0.0,1.0
1623677194.46875,0,0,1.5220434149247266,0.0,1.0
1623677194.9375,0,0,0.0,0.0,1.0
1623677195.40625,0,0,2.2141428722388663,0.0,1.0
1623677195.875,0,0,1.8169188782187722,0.0,1.0
1623677196.34375,0,0,2.175143524706477,0.0,1.0
1623677196.8125,0,0,1.4803443028739778,0.0,1.0
1623677197.28125,0,0,1.3393179722695694,0.0,1.0
1623677197.75,0,0,1.136698179058663,0.0,1.0
1623677198.21875,0,0,1.7410679079491675,0.0,1.0
1623677198.6875,0,0,2.2696154348704685,0.0,1.0
1623677199.15625,0,0,2.3491322780574153,0.0,1.0
1623677199.625,0,0,2.1282660320097033,0.0,1.0
1623677200.09375,0,0,1.9460193211049983,0.0,1.0
1623677200.5625,0,0,2.7169910825592742,0.0,1.0
1623677201.03125,0,0,0.0,0.0,1.0
1623677201.5,0,0,3.471307045630187,0.0,1.0
1623677201.96875,0,0,2.40774820921598,0.0,1.0
1623677202.4375,0,0,2.196828924870691,0.0,1.0
1623677202.90625,0,0,2.3639235589207237,0.0,1.0
1623677203.375,0,0,2.2425417388475197,0.0,1.0
1623677203.84375,0,0,3.2170921923565428,0.0,1.0
1623677204.3125,0,0,0.0,0.0,1.0
1623677204.78125,0,0,1.105624997102317,0.0,1.0
1623677205.25,0,0,1.3480878652405879,0.0,1.0
1623677205.71875,0,0,0.41338851786416014,0.0,1.0
1623677206.1875,0,0,0.8432840126872618,0.0,1.0
1623677206.65625,0,0,1.5084724664723421,0.0,1.0
1623677207.125,0,0,1.9475206387060768,0.0,1.0
1623677207.59375,0,0,0.609619334924625,0.0,1.0
1623677208.0625,0,0,1.04043723874652,0.0,1.0
1623677208.53125,0,0,0.9434646580517204,0.0,1.0
1623677209.0,0,0,0.023621954808617215,0.0,1.0
1623677209.46875,0,0,1.98516444011065,0.0,1.0
1623677209.9375,0,0,1.5714391980018936,0.0,1.0
1623677210.40625,0,0,1.7918866139745624,0.0,1.0
1623677210.875,0,0,1.4581350763567575,0.0,1.0
1623677211.34375,0,0,0.0,0.0,1.0
1623677211.8125,0,0,1.9479204153619127,0.0,1.0
1623677212.28125,0,0,2.0098333191610647,0.0,1.0
1623677212.75,0,0,1.3454870607319231,0.0,1.0
1623677213.21875,0,0,2.245100713309328,0.0,1.0
1623677213.6875,0,0,0.0,0.0,1.0
1623677214.15625,0,0,1.9427534997350815,0.0,1.0
1623677214.625,0,0,1.4890083222275288,0.0,1.0
1623677215.09375,0,0,0.4253409088299308,0.0,1.0
1623677215.5625,0,0,0.5711025016472012,0.0,1.0
1623677216.03125,0,0,0.34790109309700384,0.0,1.0
1623677216.5,0,0,1.2800542589587278,0.0,1.0
1623677216.96875,0,0,2.2748080951746483,0.0,1.0
1623677217.4375,0,0,1.2208104575270622,0.0,1.0
1623677217.90625,0,0,0.3236462603416299,0.0,1.0
1623677218.375,0,0,1.719121480802303,0.0,1.0
1623677218.84375,0,0,1.7522745866119167,0.0,1.0
1623677219.3125,0,0,1.559823558762312,0.0,1.0
1623677219.78125,0,0,2.1514395234811423,0.0,1.0
1623677220.25,0,0,0.6411220252731884,0.0,1.0
1623677220.71875,0,0,0.7914713026533051,0.0,1.0
1623677221.1875,0,0,2.051409264116349,0.0,1.0
1623677221.65625,0,0,1.4368663913821924,0.0,1.0
1623677222.125,0,0,1.6881584681683346,0.0,1.0
1623677222.59375,0,0,1.5634770729617238,0.0,1.0
1623677223.0625,0,0,0.6245231978385131,0.0,1.0
1623677223.53125,0,0,1.4158727387016161,0.0,1.0
1623677224.0,0,0,0.6166331434487012,0.0,1.0
1623677224.46875,0,0,1.0618353865057366,0.0,1.0
1623677224.9375,0,0,1.7304120703424866,0.0,1.0
1623677225.40625,0,0,3.064272633359479,0.0,1.0
1623677225.875,0,0,0.0,0.0,1.0
1623677226.34375,0,0,0.0,0.0,1.0
1623677226.8125,0,0,1.1063128807135694,0.0,1.0
1623677227.28125,0,0,1.7659724221143223,0.0,1.0
1623677227.75,0,0,1.9756956576356999,0.0,1.0
1623677228.21875,0,0,2.25583482784543,0.0,1.0
1623677228.6875,0,0,0.5929493833967853,0.0,1.0
1623677229.15625,0,0,1.7766990018677418,0.0,1.0
1623677229.625,0,0,2.1674368280242953,0.0,1.0
1623677230.09375,0,0,0.6758444869453019,0.0,1.0
1623677230.5625,0,0,1.826818027606551,0.0,1.0
1623677231.03125,0,0,1.6594102728678395,0.0,1.0
1623677231.5,0,0,2.6239356873875903,0.0,1.0
1623677231.96875,0,0,1.9680483457771358,0.0,1.0
1623677232.4375,0,0,1.3444683901471404,0.0,1.0
1623677232.90625,0,0,1.1119675585245845,0.0,1.0
1623677233.375,0,0,1.6875924596942125,0.0,1.0
1623677233.84375,0,0,0.5540478999963877,0.0,1.0
1623677234.3125,0,0,2.199587655732524,0.0,1.0
1623677234.78125,0,0,2.018329186945149,0.0,1.0
1623677235.25,0,0,1.3377250744033398,0.0,1.0
1623677235.71875,0,0,2.4503270196627973,0.0,1.0
1623677236.1875,0,0,0.0,0.0,1.0
1623677236.65625,0,0,1.5073729830358273,0.0,1.0
1623677237.125,0,0,2.903651806791536,0.0,1.0
1623677237.59375,0,0,0.7242344191863926,0.0,1.0
1623677238.0625,0,0,1.827854550479138,0.0,1.0
1623677238.53125,0,0,2.6113125961636947,0.0,1.0
1623677239.0,0,0,1.460728202772851,0.0,1.0
1623677239.46875,0,0,2.0132121581644626,0.0,1.0
1623677239.9375,0,0,0.326969400012615,0.0,1.0
1623677240.40625,0,0,2.314923610026196,0.0,1.0
1623677240.875,0,0,0.0,0.0,1.0
1623677241.34375,0,0,2.808037175367655,0.0,1.0
1623677241.8125,0,0,1.3811021625995514,0.0,1.0
1623677242.28125,0,0,-12.305631854585007,0.0,1.0
1623677242.75,0,0,49.9728458000855,0.0,1.0
1623677243.21875,0,0,0.0,0.0,1.0
1623677243.6875,0,0,10.293336452372488,0.0,1.0
1623677244.15625,0,0,2.739323685668439,0.0,1.0
1623677244.625,0,0,0.0,0.0,1.0
1623677245.09375,0,0,0.0,0.0,1.0
1623677245.5625,0,0,2.3864984784679795,0.0,1.0
1623677246.03125,0,0,2.4810935511159418,0.0,1.0
1623677246.5,0,0,1.6038958570413908,0.0,1.0
1623677246.96875,0,0,0.795825609717688,0.0,1.0
1623677247.4375,0,0,2.512975327591861,0.0,1.0
1623677247.90625,0,0,1.7196412822734808,0.0,1.0
1623677248.375,0,0,0.0,0.0,1.0
1623677248.84375,0,0,1.2867472569648384,0.0,1.0
1623677249.3125,0,0,2.7985023867182686,0.0,1.0
1623677249.78125,0,0,2.1058195203102836,0.0,1.0
1623677250.25,0,0,1.759085489506502,0.0,1.0
1623677250.71875,0,0,1.748295945934185,0.0,1.0
1623677251.1875,0,0,2.9261655025784292,0.0,1.0
1623677251.65625,0,0,1.82267112167785,0.0,1.0
1623677252.125,0,0,0.0,0.0,1.0
1623677252.59375,0,0,0.40832704145769294,0.0,1.0
1623677253.0625,0,0,2.175015328368848,0.0,1.0
1623677253.53125,0,0,2.570504603559025,0.0,1.0
1623677254.0,0,0,1.5173302839943423,0.0,1.0
1623677254.46875,0,0,1.1445071442038532,0.0,1.0
1623677254.9375,0,0,1.982565559027603,0.0,1.0
1623677255.40625,0,0,2.1586736312724897,0.0,1.0
1623677255.875,0,0,1.7367325609137056,0.0,1.0
1623677256.34375,0,0,1.7307776688525058,0.0,1.0
1623677256.8125,0,0,2.8494040578554376,0.0,1.0
1623677257.28125,0,0,1.1819444730000273,0.0,1.0
1623677257.75,0,0,1.5463369524021346,0.0,1.0
1623677258.21875,0,0,1.1429814582365199,0.0,1.0
1623677258.6875,0,0,0.8531911707430326,0.0,1.0
1623677259.15625,0,0,1.3972724367618565,0.0,1.0
1623677259.625,0,0,1.6569117864304435,0.0,1.0
1623677260.09375,0,0,2.3446871084980487,0.0,1.0
1623677260.5625,0,0,1.9573012135378218,0.0,1.0
1623677261.03125,0,0,0.0,0.0,1.0
1623677261.5,0,0,1.3350434482158755,0.0,1.0
1623677261.96875,0,0,2.725176703946207,0.0,1.0
1623677262.4375,0,0,1.4652629166874311,0.0,1.0
1623677262.90625,0,0,1.9506902861350843,0.0,1.0
1623677263.375,0,0,1.1608547969258074,0.0,1.0
1623677263.84375,0,0,1.760553312303733,0.0,1.0
1623677264.3125,0,0,2.916826425378146,0.0,1.0
1623677264.78125,0,0,0.7723455534494891,0.0,1.0
1623677265.25,0,0,4.819202504612918,0.0,1.0
1623677265.71875,0,0,1.2026535444693789,0.0,1.0
1623677266.1875,0,0,-0.33314592097844,0.0,1.0
1623677266.65625,0,0,2.457445091393669,0.0,1.0
1623677267.125,0,0,0.7050539282621598,0.0,1.0
1623677267.59375,0,0,2.0731170342748264,0.0,1.0
1623677268.0625,0,0,1.462318774439387,0.0,1.0
1623677268.53125,0,0,1.6661853449545845,0.0,1.0
1623677269.0,0,0,1.417303121346164,0.0,1.0
1623677269.46875,0,0,1.8411196160411845,0.0,1.0
1623677269.9375,0,0,1.3919791469595055,0.0,1.0
1623677270.40625,0,0,0.9978527325447322,0.0,1.0
1623677270.875,0,0,1.92862760458037,0.0,1.0
1623677271.34375,0,0,1.8560422175296065,0.0,1.0
1623677271.8125,0,0,2.7910594546679137,0.0,1.0
1623677272.28125,0,0,1.8246447203967469,0.0,1.0
1623677272.75,0,0,1.3111900212377032,0.0,1.0
1623677273.21875,0,0,1.874172037647123,0.0,1.0
1623677273.6875,0,0,2.10831285727317,0.0,1.0
1623677274.15625,0,0,2.3040657030113296,0.0,1.0
1623677274.625,0,0,1.933969932732581,0.0,1.0
1623677275.09375,0,0,1.705133804497995,0.0,1.0
1623677275.5625,0,0,1.9354517925453447,0.0,1.0
1623677276.03125,0,0,2.0308218959202406,0.0,1.0
1623677276.5,0,0,1.5123926606749871,0.0,1.0
1623677276.96875,0,0,1.6373676642498922,0.0,1.0
1623677277.4375,0,0,3.109445778574936,0.0,1.0
1623677277.90625,0,0,2.683163801045119,0.0,1.0
1623677278.375,0,0,0.0,0.0,1.0
1623677278.84375,0,0,0.0,0.0,1.0
1623677279.3125,0,0,2.535274241142259,0.0,1.0
1623677279.78125,0,0,1.7018775619307995,0.0,1.0
1623677280.25,0,0,2.3926359570028484,0.0,1.0
1623677280.71875,0,0,3.3725578660147053,0.0,1.0
1623677281.1875,0,0,2.212680399283337,0.0,1.0
1623677281.65625,0,0,1.5740037576911965,0.0,1.0
1623677282.125,0,0,2.360039721178612,0.0,1.0
1623677282.59375,0,0,3.7364695217216672,0.0,1.0
1623677283.0625,0,0,2.488191982221206,0.0,1.0
1623677283.53125,0,0,3.3867204675187814,0.0,1.0
1623677284.0,0,0,1.6029008950213008,0.0,1.0
1623677284.46875,0,0,2.090879117076428,0.0,1.0
1623677284.9375,0,0,1.9376370101487397,0.0,1.0
1623677285.40625,0,0,2.757777526907923,0.0,1.0
1623677285.875,0,0,2.0617291097516097,0.0,1.0
1623677286.34375,0,0,2.2211897912524448,0.0,1.0
1623677286.8125,0,0,1.7709288877149645,0.0,1.0
1623677287.28125,0,0,1.0599191657988936,0.0,1.0
1623677287.75,0,0,3.1748274538103733,0.0,1.0
1623677288.21875,0,0,2.503072260807955,0.0,1.0
1623677288.6875,0,0,2.138225465252768,0.0,1.0
1623677289.15625,0,0,5.730939393060366,0.0,1.0
1623677289.625,0,0,2.455989325703787,0.0,1.0
1623677290.09375,0,0,0.8015132322432508,0.0,1.0
1623677290.5625,0,0,1.49098143585058,0.0,1.0
1623677291.03125,0,0,3.0740690616186495,0.0,1.0
1623677291.5,0,0,2.390420128204092,0.0,1.0
1623677291.96875,0,0,2.376644900609234,0.0,1.0
1623677292.4375,0,0,3.0179538113654063,0.0,1.0
1623677292.90625,0,0,0.0,0.0,1.0
1623677293.375,0,0,2.9476562532670005,0.0,1.0
1623677293.84375,0,0,2.406291180782951,0.0,1.0
1623677294.3125,0,0,1.8177237125053485,0.0,1.0
1623677294.78125,0,0,2.1606708487615145,0.0,1.0
1623677295.25,0,0,2.3491742094671344,0.0,1.0
1623677295.71875,0,0,0.0,0.0,1.0
1623677296.1875,0,0,2.387091494744247,0.0,1.0
1623677296.65625,0,0,1.826300581457481,0.0,1.0
1623677297.125,0,0,2.487809831109434,0.0,1.0
1623677297.59375,0,0,2.159929687354879,0.0,1.0
1623677298.0625,0,0,2.8967875895156516,0.0,1.0
1623677298.53125,0,0,0.0,0.0,1.0
1623677299.0,0,0,2.4490800641921684,0.0,1.0
1623677299.46875,0,0,1.6188931179793389,0.0,1.0
1623677299.9375,0,0,2.8497766675477982,0.0,1.0
1623677300.40625,0,0,1.4086612311488942,0.0,1.0
1623677300.875,0,0,3.1968586799768612,0.0,1.0
1623677301.34375,0,0,2.7710228006313278,0.0,1.0
1623677301.8125,0,0,2.8712443535904546,0.0,1.0
1623677302.28125,0,0,2.8238631512792853,0.0,1.0
1623677302.75,0,0,1.7204042066530076,0.0,1.0
1623677303.21875,0,0,2.628621155964753,0.0,1.0
1623677303.6875,0,0,2.9008490859543374,0.0,1.0
1623677304.15625,0,0,2.0819058159315835,0.0,1.0
1623677304.625,0,0,3.239503632728777,0.0,1.0
1623677305.09375,0,0,2.088626814584914,0.0,1.0
1623677305.5625,0,0,3.200029626718657,0.0,1.0
1623677306.03125,0,0,1.8432939927402743,0.0,1.0
1623677306.5,0,0,2.9899138241916434,0.0,1.0
1623677306.96875,0,0,2.272296455029232,0.0,1.0
1623677307.4375,0,0,2.1848650113471484,0.0,1.0
1623677307.90625,0,0,0.0,0.0,1.0
1623677308.375,0,0,2.2982425168699754,0.0,1.0
1623677308.84375,0,0,3.1531767617479374,0.0,1.0
1623677309.3125,0,0,2.1794769057107493,0.0,1.0
1623677309.78125,0,0,2.8412528893250784,0.0,1.0
1623677310.25,0,0,0.0,0.0,1.0
1623677310.71875,0,0,2.5783455130670134,0.0,1.0
1623677311.1875,0,0,3.0535041667943172,0.0,1.0
1623677311.65625,0,0,2.714390985850855,0.0,1.0
1623677312.125,0,0,2.135835494832529,0.0,1.0
1623677312.59375,0,0,1.7483852759064542,0.0,1.0
1623677313.0625,0,0,2.659007798534562,0.0,1.0
1623677313.53125,0,0,1.9673087038214698,0.0,1.0
1623677314.0,0,0,1.4997424416752116,0.0,1.0
1623677314.46875,0,0,2.710263392342603,0.0,1.0
1623677314.9375,0,0,2.7687190355092333,0.0,1.0
1623677315.40625,0,0,0.0,0.0,1.0
1623677315.875,0,0,0.0,0.0,1.0
1623677316.34375,0,0,3.302316656445109,0.0,1.0
1623677316.8125,0,0,3.609479106638062,0.0,1.0
1623677317.28125,0,0,2.930148622594181,0.0,1.0
1623677317.75,0,0,1.8062053762904886,0.0,1.0
1623677318.21875,0,0,2.633440947551553,0.0,1.0
1623677318.6875,0,0,1.7404683727947583,0.0,1.0
1623677319.15625,0,0,2.227230606261683,0.0,1.0
1623677319.625,0,0,2.9651309511869166,0.0,1.0
1623677320.09375,0,0,3.6241358430694977,0.0,1.0
1623677320.5625,0,0,0.0,0.0,1.0
1623677321.03125,0,0,1.3788375088008107,0.0,1.0
1623677321.5,0,0,2.304432481364475,0.0,1.0
1623677321.96875,0,0,1.6806897810443064,0.0,1.0
1623677322.4375,0,0,1.9341527143692485,0.0,1.0
1623677322.90625,0,0,1.5344355953826412,0.0,1.0
1623677323.375,0,0,2.153951180128232,0.0,1.0
1623677323.84375,0,0,1.8354552330572393,0.0,1.0
1623677324.3125,0,0,0.0,0.0,1.0
1623677324.78125,0,0,1.4308440830616505,0.0,1.0
1623677325.25,0,0,1.948385611446114,0.0,1.0
1623677325.71875,0,0,1.5253926886162152,0.0,1.0
1623677326.1875,0,0,1.5641779912666347,0.0,1.0
1623677326.65625,0,0,1.5736229448706973,0.0,1.0
1623677327.125,0,0,1.097384656987217,0.0,1.0
1623677327.59375,0,0,1.7592839957123991,0.0,1.0
1623677328.0625,0,0,2.0915521826699215,0.0,1.0
1623677328.53125,0,0,2.708741103545146,0.0,1.0
1623677329.0,0,0,1.5671239959299357,0.0,1.0
1623677329.46875,0,0,2.0029520903859446,0.0,1.0
1623677329.9375,0,0,0.37808374175635767,0.0,1.0
1623677330.40625,0,0,2.5107516072928275,0.0,1.0
1623677330.875,0,0,1.9261443666695381,0.0,1.0
1623677331.34375,0,0,1.7947982945925849,0.0,1.0
1623677331.8125,0,0,2.381638802976896,0.0,1.0
1623677332.28125,0,0,1.9014694558435163,0.0,1.0
1623677332.75,0,0,1.200966932148613,0.0,1.0
1623677333.21875,0,0,2.413115710237905,0.0,1.0
1623677333.6875,0,0,1.7924013611997567,0.0,1.0
1623677334.15625,0,0,1.2216152697232363,0.0,1.0
1623677334.625,0,0,2.301007109019266,0.0,1.0
1623677335.09375,0,0,1.5069102624460946,0.0,1.0
1623677335.5625,0,0,1.7730441304084477,0.0,1.0
1623677336.03125,0,0,1.839027635956934,0.0,1.0
1623677336.5,0,0,0.0,0.0,1.0
1623677336.96875,0,0,0.0,0.0,1.0
1623677337.4375,0,0,2.5756775788323014,0.0,1.0
1623677337.90625,0,0,1.2458615778446216,0.0,1.0
1623677338.375,0,0,2.8844544058412644,0.0,1.0
1623677338.84375,0,0,2.5725942198687557,0.0,1.0
1623677339.3125,0,0,2.390691433705664,0.0,1.0
1623677339.78125,0,0,1.876519704263107,0.0,1.0
1623677340.25,0,0,1.441282911474953,0.0,1.0
1623677340.71875,0,0,1.9484194576317115,0.0,1.0
1623677341.1875,0,0,1.6434261931618155,0.0,1.0
1623677341.65625,0,0,1.9381164902901105,0.0,1.0
1623677342.125,0,0,2.6316639210462953,0.0,1.0
1623677342.59375,0,0,0.0,0.0,1.0
1623677343.0625,0,0,3.028429946701408,0.0,1.0
1623677343.53125,0,0,2.5351844100413468,0.0,1.0
1623677344.0,0,0,1.5356237083418003,0.0,1.0
1623677344.46875,0,0,1.4185119011296092,0.0,1.0
1623677344.9375,0,0,1.438433894692043,0.0,1.0
1623677345.40625,0,0,2.406546218292229,0.0,1.0
1623677345.875,0,0,2.1583432070781323,0.0,1.0
1623677346.34375,0,0,2.9352775731326592,0.0,1.0
1623677346.8125,0,0,2.3660532120078814,0.0,1.0
1623677347.28125,0,0,1.6622032333359944,0.0,1.0
1623677347.75,0,0,1.5356399271497356,0.0,1.0
1623677348.21875,0,0,2.016656160431019,0.0,1.0
1623677348.6875,0,0,1.6912352095444556,0.0,1.0
1623677349.15625,0,0,1.9083970928822107,0.0,1.0
1623677349.625,0,0,1.7458063208371197,0.0,1.0
1623677350.09375,0,0,1.259148888046018,0.0,1.0
1623677350.5625,0,0,2.3357967394160464,0.0,1.0
1623677351.03125,0,0,1.5477402780082545,0.0,1.0
1623677351.5,0,0,1.8591246473906828,0.0,1.0
1623677351.96875,0,0,0.0,0.0,1.0
1623677352.4375,0,0,1.9037585514936388,0.0,1.0
1623677352.90625,0,0,2.005298933000894,0.0,1.0
1623677353.375,0,0,2.5265377958297592,0.0,1.0
1623677353.84375,0,0,1.4075326885763422,0.0,1.0
1623677354.3125,0,0,1.5385283327776942,0.0,1.0
1623677354.78125,0,0,2.357202894251895,0.0,1.0
1623677355.25,0,0,2.2257228183485904,0.0,1.0
1623677355.71875,0,0,2.137545657889781,0.0,1.0
1623677356.1875,0,0,1.9675273599607401,0.0,1.0
1623677356.65625,0,0,1.7857864347006225,0.0,1.0
1623677357.125,0,0,1.8781529747512489,0.0,1.0
1623677357.59375,0,0,3.005021675675952,0.0,1.0
1623677358.0625,0,0,1.7335686546587334,0.0,1.0
1623677358.53125,0,0,2.125529394005664,0.0,1.0
1623677359.0,0,0,2.552654812681289,0.0,1.0
1623677359.46875,0,0,0.0,0.0,1.0
1623677359.9375,0,0,2.0529506260403187,0.0,1.0
1623677360.40625,0,0,1.7964621269912289,0.0,1.0
1623677360.875,0,0,1.8206916109373354,0.0,1.0
1623677361.34375,0,0,2.2017970574113583,0.0,1.0
1623677361.8125,0,0,1.9239857697046419,0.0,1.0
1623677362.28125,0,0,1.759168478824737,0.0,1.0
1623677362.75,0,0,1.9610966640938354,0.0,1.0
1623677363.21875,0,0,0.819987125352538,0.0,1.0
1623677363.6875,0,0,1.6483951353383368,0.0,1.0
1623677364.15625,0,0,1.7115484762396076,0.0,1.0
1623677364.625,0,0,2.540302411848475,0.0,1.0
1623677365.09375,0,0,2.1975427038702593,0.0,1.0
1623677365.5625,0,0,0.6979404611203484,0.0,1.0
1623677366.03125,0,0,2.160358953579233,0.0,1.0
1623677366.5,0,0,0.9126166507932804,0.0,1.0
1623677366.96875,0,0,2.707369742620105,0.0,1.0
1623677367.4375,0,0,1.7907506399547348,0.0,1.0
1623677367.90625,0,0,2.1172343139232828,0.0,1.0
1623677368.375,0,0,1.5833084167640832,0.0,1.0
1623677368.84375,0,0,1.5796425048875535,0.0,1.0
1623677369.3125,0,0,1.3443956827383565,0.0,1.0
1623677369.78125,0,0,2.038082596309827,0.0,1.0
1623677370.25,0,0,2.284724124206407,0.0,1.0
1623677370.71875,0,0,2.037952381985654,0.0,1.0
1623677371.1875,0,0,1.8507460402338811,0.0,1.0
1623677371.65625,0,0,0.9268916337870756,0.0,1.0
1623677372.125,0,0,1.2577944006107433,0.0,1.0
1623677372.59375,0,0,1.8317538759510346,0.0,1.0
1623677373.0625,0,0,1.8643530044568215,0.0,1.0
1623677373.53125,0,0,1.3305386127379923,0.0,1.0
1623677374.0,0,0,2.41102085082704,0.0,1.0
1623677374.46875,0,0,1.0149737508244585,0.0,1.0
1623677374.9375,0,0,2.2453444110144516,0.0,1.0
1623677375.40625,0,0,2.2417240809675967,0.0,1.0
1623677375.875,0,0,2.165277808688771,0.0,1.0
1623677376.34375,0,0,1.5080517248140841,0.0,1.0
1623677376.8125,0,0,1.4018879882142017,0.0,1.0
1623677377.28125,0,0,0.0,0.0,1.0
1623677377.75,0,0,1.7766456528273609,0.0,1.0
1623677378.21875,0,0,2.6756179891251004,0.0,1.0
1623677378.6875,0,0,2.18997172575309,0.0,1.0
1623677379.15625,0,0,2.87861379045382,0.0,1.0
1623677379.625,0,0,0.0,0.0,1.0
1623677380.09375,0,0,1.9919003841422613,0.0,1.0
1623677380.5625,0,0,1.9091015361972732,0.0,1.0
1623677381.03125,0,0,2.340472842807599,0.0,1.0
1623677381.5,0,0,2.5993165861036203,0.0,1.0
1623677381.96875,0,0,0.0,0.0,1.0
1623677382.4375,0,0,2.0411067467461295,0.0,1.0
1623677382.90625,0,0,2.0190129064274482,0.0,1.0
1623677383.375,0,0,2.161234900641651,0.0,1.0
1623677383.84375,0,0,2.570379955372816,0.0,1.0
1623677384.3125,0,0,0.0,0.0,1.0
1623677384.78125,0,0,1.2493722566588428,0.0,1.0
1623677385.25,0,0,2.109575675438107,0.0,1.0
1623677385.71875,0,0,1.470193172774816,0.0,1.0
1623677386.1875,0,0,2.5826333455983894,0.0,1.0
1623677386.65625,0,0,2.782527656278776,0.0,1.0
1623677387.125,0,0,0.0,0.0,1.0
1623677387.59375,0,0,0.0,0.0,1.0
1623677388.0625,0,0,2.4575264081369164,0.0,1.0
1623677388.53125,0,0,2.146841114866301,0.0,1.0
1623677389.0,0,0,1.9053748306755598,0.0,1.0
1623677389.46875,0,0,1.5678271148853027,0.0,1.0
1623677389.9375,0,0,1.8039951279157098,0.0,1.0
1623677390.40625,0,0,2.553324057535682,0.0,1.0
1623677390.875,0,0,2.4075823629273443,0.0,1.0
1623677391.34375,0,0,1.2634616725133943,0.0,1.0
1623677391.8125,0,0,1.9179736279786384,0.0,1.0
1623677392.28125,0,0,0.0,0.0,1.0
1623677392.75,0,0,1.5311100582144859,0.0,1.0
1623677393.21875,0,0,2.2143843049406446,0.0,1.0
1623677393.6875,0,0,2.7147105799179996,0.0,1.0
1623677394.15625,0,0,0.0,0.0,1.0
1623677394.625,0,0,1.6906902147201281,0.0,1.0
1623677395.09375,0,0,2.385467951517296,0.0,1.0
1623677395.5625,0,0,1.4612104826156065,0.0,1.0
1623677396.03125,0,0,2.1936725423347307,0.0,1.0
1623677396.5,0,0,1.7758575172724533,0.0,1.0
1623677396.96875,0,0,1.4576736301949935,0.0,1.0
1623677397.4375,0,0,1.0411456463124489,0.0,1.0
1623677397.90625,0,0,2.245330065004289,0.0,1.0
1623677398.375,0,0,2.812631429188705,0.0,1.0
1623677398.84375,0,0,1.6271307213991753,0.0,1.0
1623677399.3125,0,0,2.3250392637323016,0.0,1.0
1623677399.78125,0,0,2.4364863950704083,0.0,1.0
1623677400.25,0,0,2.705072438146155,0.0,1.0
1623677400.71875,0,0,2.145745122805787,0.0,1.0
1623677401.1875,0,0,2.944257954268012,0.0,1.0
1623677401.65625,0,0,1.7694319077482104,0.0,1.0
1623677402.125,0,0,0.6974566902556719,0.0,1.0
1623677402.59375,0,0,2.5138053967378062,0.0,1.0
1623677403.0625,0,0,2.514924627630973,0.0,1.0
1623677403.53125,0,0,2.223156541453133,0.0,1.0
1623677404.0,0,0,2.3659066728413545,0.0,1.0
1623677404.46875,0,0,0.0,0.0,1.0
1623677404.9375,0,0,1.2250634009687897,0.0,1.0
1623677405.40625,0,0,1.6060219440973376,0.0,1.0
1623677405.875,0,0,2.5429456769976966,0.0,1.0
1623677406.34375,0,0,2.319588308743174,0.0,1.0
1623677406.8125,0,0,0.9467238683842245,0.0,1.0
1623677407.28125,0,0,1.8245914261696152,0.0,1.0
1623677407.75,0,0,2.2955271474367085,0.0,1.0
1623677408.21875,0,0,2.199123468263307,0.0,1.0
1623677408.6875,0,0,1.565344024353406,0.0,1.0
1623677409.15625,0,0,1.4857611669603323,0.0,1.0
1623677409.625,0,0,2.4679294293854177,0.0,1.0
1623677410.09375,0,0,1.6552904639137145,0.0,1.0
1623677410.5625,0,0,2.236752533034749,0.0,1.0
1623677411.03125,0,0,2.594938465797996,0.0,1.0
1623677411.5,0,0,0.0,0.0,1.0
1623677411.96875,0,0,1.7356461970775732,0.0,1.0
1623677412.4375,0,0,2.4272702794316285,0.0,1.0
1623677412.90625,0,0,2.2905430099146677,0.0,1.0
1623677413.375,0,0,0.9808169483884425,0.0,1.0
1623677413.84375,0,0,1.542118912902476,0.0,1.0
1623677414.3125,0,0,1.4350194750245069,0.0,1.0
1623677414.78125,0,0,0.0,0.0,1.0
1623677415.25,0,0,2.1629362756793302,0.0,1.0
1623677415.71875,0,0,2.446538823550962,0.0,1.0
1623677416.1875,0,0,2.8742786609417883,0.0,1.0
1623677416.65625,0,0,1.7792810422305823,0.0,1.0
1623677417.125,0,0,1.9824366373105242,0.0,1.0
1623677417.59375,0,0,0.0,0.0,1.0
1623677418.0625,0,0,2.2010021253471326,0.0,1.0
1623677418.53125,0,0,2.0381416791119453,0.0,1.0
1623677419.0,0,0,1.926209080433946,0.0,1.0
1623677419.46875,0,0,1.6734394222077618,0.0,1.0
1623677419.9375,0,0,1.04363360404066,0.0,1.0
1623677420.40625,0,0,1.4391205366703361,0.0,1.0
1623677420.875,0,0,1.5201587247235315,0.0,1.0
1623677421.34375,0,0,2.6713893669852458,0.0,1.0
1623677421.8125,0,0,1.258449070454679,0.0,1.0
1623677422.28125,0,0,1.791258469566716,0.0,1.0
1623677422.75,0,0,2.0242541895220008,0.0,1.0
1623677423.21875,0,0,0.2040565236245682,0.0,1.0
1623677423.6875,0,0,1.4259010692126308,0.0,1.0
1623677424.15625,0,0,2.0671111626153635,0.0,1.0
1623677424.625,0,0,1.9425023568398871,0.0,1.0
1623677425.09375,0,0,1.816102922234936,0.0,1.0
1623677425.5625,0,0,1.1295289925100587,0.0,1.0
1623677426.03125,0,0,3.599949739509424,0.0,1.0
1623677426.5,0,0,0.2031619415253244,0.0,1.0
1623677426.96875,0,0,1.7087049093854354,0.0,1.0
1623677427.4375,0,0,2.2299554145967373,0.0,1.0
1623677427.90625,0,0,1.9753255492462833,0.0,1.0
1623677428.375,0,0,2.3488987146638376,0.0,1.0
1623677428.84375,0,0,1.2739127197556364,0.0,1.0
1623677429.3125,0,0,1.2434135132756883,0.0,1.0
1623677429.78125,0,0,2.093279739333117,0.0,1.0
1623677430.25,0,0,2.1566928774326395,0.0,1.0
1623677430.71875,0,0,2.461155642235392,0.0,1.0
1623677431.1875,0,0,1.992706694085476,0.0,1.0
1623677431.65625,0,0,1.2399350626710413,0.0,1.0
1623677432.125,0,0,1.4575617396320173,0.0,1.0
1623677432.59375,0,0,1.6940524245990018,0.0,1.0
1623677433.0625,0,0,2.161814475102374,0.0,1.0
1623677433.53125,0,0,1.8986074313435173,0.0,1.0
1623677434.0,0,0,1.3326948792249014,0.0,1.0
1623677434.46875,0,0,2.311749643032111,0.0,1.0
1623677434.9375,0,0,1.3804734501502134,0.0,1.0
1623677435.40625,0,0,1.8102333448260222,0.0,1.0
1623677435.875,0,0,1.5340838277350692,0.0,1.0
1623677436.34375,0,0,2.1026345210252715,0.0,1.0
1623677436.8125,0,0,0.9514213779721081,0.0,1.0
1623677437.28125,0,0,0.7779049876585113,0.0,1.0
1623677437.75,0,0,1.3242366584648155,0.0,1.0
1623677438.21875,0,0,2.1083532875981836,0.0,1.0
1623677438.6875,0,0,1.943293497026739,0.0,1.0
1623677439.15625,0,0,0.9939229509948602,0.0,1.0
1623677439.625,0,0,1.4036273772097925,0.0,1.0
1623677440.09375,0,0,1.889789886235952,0.0,1.0
1623677440.5625,0,0,2.882519605689133,0.0,1.0
1623677441.03125,0,0,0.0,0.0,1.0
1623677441.5,0,0,1.8939929504869473,0.0,1.0
1623677441.96875,0,0,2.446624621547906,0.0,1.0
1623677442.4375,0,0,1.8542265284787762,0.0,1.0
1623677442.90625,0,0,1.4761137001580047,0.0,1.0
1623677443.375,0,0,2.3898494822938403,0.0,1.0
1623677443.84375,0,0,0.0,0.0,1.0
1623677444.3125,0,0,0.0,0.0,1.0
1623677444.78125,0,0,2.7594838325218873,0.0,1.0
1623677445.25,0,0,1.9271426397870237,0.0,1.0
1623677445.71875,0,0,1.4532593364012636,0.0,1.0
1623677446.1875,0,0,1.457662656554538,0.0,1.0
1623677446.65625,0,0,1.3622646314738438,0.0,1.0
1623677447.125,0,0,2.059222194913096,0.0,1.0
1623677447.59375,0,0,0.0,0.0,1.0
1623677448.0625,0,0,1.2952120254787913,0.0,1.0
1623677448.53125,0,0,1.4290740410102183,0.0,1.0
1623677449.0,0,0,1.5290571586815025,0.0,1.0
1623677449.46875,0,0,1.439228880003655,0.0,1.0
1623677449.9375,0,0,2.1881668948873516,0.0,1.0
1623677450.40625,0,0,1.452451519387574,0.0,1.0
1623677450.875,0,0,1.318548651863,0.0,1.0
1623677451.34375,0,0,1.7296207489142954,0.0,1.0
1623677451.8125,0,0,1.5035044135621036,0.0,1.0
1623677452.28125,0,0,1.6257833114436278,0.0,1.0
1623677452.75,0,0,1.1478843677664352,0.0,1.0
1623677453.21875,0,0,0.5527124721567435,0.0,1.0
1623677453.6875,0,0,1.1399807333677334,0.0,1.0
1623677454.15625,0,0,1.0384232931111539,0.0,1.0
1623677454.625,0,0,1.6252881430822201,0.0,1.0
1623677455.09375,0,0,1.9827709544321563,0.0,1.0
1623677455.5625,0,0,0.7126291877297566,0.0,1.0
1623677456.03125,0,0,1.6497956344934082,0.0,1.0
1623677456.5,0,0,0.14688181299989572,0.0,1.0
1623677456.96875,0,0,1.1101096502858985,0.0,1.0
1623677457.4375,0,0,2.0015315558886275,0.0,1.0
1623677457.90625,0,0,2.7559650993520988,0.0,1.0
1623677458.375,0,0,-0.7528262923869522,0.0,1.0
1623677458.84375,0,0,-0.9603259147843088,0.0,1.0
1623677459.3125,0,0,1.1110455489513238,0.0,1.0
1623677459.78125,0,0,8.685267188171572,0.0,1.0
1623677460.25,0,0,5.983746884536326,0.0,1.0
1623677460.71875,0,0,0.0,0.0,1.0
1623677461.1875,0,0,0.0,0.0,1.0
1623677461.65625,0,0,136.45862646205896,0.0,1.0
1623677462.125,0,0,231.62104781026486,0.0,1.0
1623677462.59375,0,0,-20.200417197215376,0.0,1.0
1623677463.0625,0,0,234.90700983886435,0.0,1.0
1623677463.53125,0,0,0.0,0.0,1.0
1623677464.0,0,0,0.0,0.0,1.0
1623677464.46875,0,0,17.740891664389018,0.0,1.0
1623677464.9375,0,0,13.783135864182713,0.0,1.0
1623677465.40625,0,0,-5.568741831191304,0.0,1.0
1623677465.875,0,0,-2.2969365255165455,0.0,1.0
1623677466.34375,0,0,1.4484306529712723,0.0,1.0
1623677466.8125,0,0,4.412210895315041,0.0,1.0
1623677467.28125,0,0,0.41324820088892955,0.0,1.0
1623677467.75,0,0,3.252223825977706,0.0,1.0
1623677468.21875,0,0,1.6131563015239192,0.0,1.0
1623677468.6875,0,0,0.40465920425835394,0.0,1.0
1623677469.15625,0,0,-2.3876501919872726,0.0,1.0
1623677469.625,0,0,4.246547162101571,0.0,1.0
1623677470.09375,0,0,3.1797145958055695,0.0,1.0
1623677470.5625,0,0,1.5418890322157985,0.0,1.0
1623677471.03125,0,0,2.8200411570029016,0.0,1.0
1623677471.5,0,0,2.4538763681963305,0.0,1.0
1623677471.96875,0,0,2.3552311077386543,0.0,1.0
1623677472.4375,0,0,0.4571576247618248,0.0,1.0
1623677472.90625,0,0,2.0334321942600986,0.0,1.0
1623677473.375,0,0,2.6178768713912817,0.0,1.0
1623677473.84375,0,0,2.0421537664779335,0.0,1.0
1623677474.3125,0,0,2.1971393081041386,0.0,1.0
1623677474.78125,0,0,0.0,0.0,1.0
1623677475.25,0,0,0.0,0.0,1.0
1623677475.71875,0,0,1.0466130757116976,0.0,1.0
1623677476.1875,0,0,2.0093089867458906,0.0,1.0
1623677476.65625,0,0,0.15734233284879554,0.0,1.0
1623677477.125,0,0,2.4885795925376466,0.0,1.0
1623677477.59375,0,0,2.0843295785427296,0.0,1.0
1623677478.0625,0,0,0.0,0.0,1.0
1623677478.53125,0,0,2.480678872059455,0.0,1.0
1623677479.0,0,0,1.6030920232659969,0.0,1.0
1623677479.46875,0,0,3.50239496646021,0.0,1.0
1623677479.9375,0,0,1.4652032366322716,0.0,1.0
1623677480.40625,0,0,1.2196457392510394,0.0,1.0
1623677480.875,0,0,3.797248715660422,0.0,1.0
1623677481.34375,0,0,0.8852462620639339,0.0,1.0
1623677481.8125,0,0,0.0,0.0,1.0
1623677482.28125,0,0,0.9164939928604268,0.0,1.0
1623677482.75,0,0,4.53302978581242,0.0,1.0
1623677483.21875,0,0,1.3337642332629596,0.0,1.0
1623677483.6875,0,0,2.9237529252767103,0.0,1.0
1623677484.15625,0,0,2.1309122264453726,0.0,1.0
1623677484.625,0,0,2.4959339273058174,0.0,1.0
1623677485.09375,0,0,0.0,0.0,1.0
1623677485.5625,0,0,3.2726322464435125,0.0,1.0
1623677486.03125,0,0,2.95555759857299,0.0,1.0
1623677486.5,0,0,2.0506401419197684,0.0,1.0
1623677486.96875,0,0,0.0,0.0,1.0
1623677487.4375,0,0,1.5308952222926797,0.0,1.0
1623677487.90625,0,0,2.1263424310256407,0.0,1.0
1623677488.375,0,0,1.7636881742950692,0.0,1.0
1623677488.84375,0,0,1.6641473349500864,0.0,1.0
1623677489.3125,0,0,1.7389287716357977,0.0,1.0
1623677489.78125,0,0,1.4070717131157648,0.0,1.0
1623677490.25,0,0,1.692628822969672,0.0,1.0
1623677490.71875,0,0,2.2577694185071073,0.0,1.0
1623677491.1875,0,0,2.0143218266312393,0.0,1.0
1623677491.65625,0,0,1.7070387668143547,0.0,1.0
1623677492.125,0,0,1.7553848220235335,0.0,1.0
1623677492.59375,0,0,2.2370168906901635,0.0,1.0
1623677493.0625,0,0,-0.4938131032414716,0.0,1.0
1623677493.53125,0,0,1.391270424406986,0.0,1.0
1623677494.0,0,0,1.4329046551285378,0.0,1.0
1623677494.46875,0,0,1.5976975877609108,0.0,1.0
1623677494.9375,0,0,2.8525039440412163,0.0,1.0
1623677495.40625,0,0,0.0,0.0,1.0
1623677495.875,0,0,1.3338464118416387,0.0,1.0
1623677496.34375,0,0,2.9825949859387855,0.0,1.0
1623677496.8125,0,0,2.272532055635946,0.0,1.0
1623677497.28125,0,0,2.28093090873496,0.0,1.0
1623677497.75,0,0,1.2176349195009737,0.0,1.0
1623677498.21875,0,0,0.0,0.0,1.0
1623677498.6875,0,0,2.07211945012526,0.0,1.0
1623677499.15625,0,0,1.6956560448687024,0.0,1.0
1623677499.625,0,0,2.473990726701183,0.0,1.0
1623677500.09375,0,0,2.2252793224771352,0.0,1.0
1623677500.5625,0,0,0.0,0.0,1.0
1623677501.03125,0,0,2.3002795805475147,0.0,1.0
1623677501.5,0,0,0.0,0.0,1.0
1623677501.96875,0,0,1.3081850772352113,0.0,1.0
1623677502.4375,0,0,1.6604443121086228,0.0,1.0
1623677502.90625,0,0,2.949223986891177,0.0,1.0
1623677503.375,0,0,1.9106230647920004,0.0,1.0
1623677503.84375,0,0,2.2489746368292294,0.0,1.0
1623677504.3125,0,0,2.228580582578439,0.0,1.0
1623677504.78125,0,0,0.9354432828397414,0.0,1.0
1623677505.25,0,0,1.448580233499608,0.0,1.0
1623677505.71875,0,0,2.547417591468325,0.0,1.0
1623677506.1875,0,0,1.8547149046472287,0.0,1.0
1623677506.65625,0,0,1.6594334991657091,0.0,1.0
1623677507.125,0,0,0.0944800492494511,0.0,1.0
1623677507.59375,0,0,0.0,0.0,1.0
1623677508.0625,0,0,1.3828972975422702,0.0,1.0
1623677508.53125,0,0,1.8138306161786537,0.0,1.0
1623677509.0,0,0,1.2258680609390902,0.0,1.0
1623677509.46875,0,0,1.2940797244097222,0.0,1.0
1623677509.9375,0,0,1.0384169349860972,0.0,1.0
1623677510.40625,0,0,3.1603276649206395,0.0,1.0
1623677510.875,0,0,1.566945281881636,0.0,1.0
1623677511.34375,0,0,2.3258674137309816,0.0,1.0
1623677511.8125,0,0,0.6394679137456073,0.0,1.0
1623677512.28125,0,0,1.5608871353118134,0.0,1.0
1623677512.75,0,0,1.7102243170632105,0.0,1.0
1623677513.21875,0,0,0.0,0.0,1.0
1623677513.6875,0,0,0.0,0.0,1.0
1623677514.15625,0,0,2.568116784764633,0.0,1.0
1623677514.625,0,0,3.569101658823298,0.0,1.0
1623677515.09375,0,0,1.832393604341499,0.0,1.0
1623677515.5625,0,0,2.3526347170752393,0.0,1.0
1623677516.03125,0,0,1.2391840839459596,0.0,1.0
1623677516.5,0,0,0.0,0.0,1.0
1623677516.96875,0,0,1.804242726736776,0.0,1.0
1623677517.4375,0,0,3.2270442606293774,0.0,1.0
1623677517.90625,0,0,1.574368019092979,0.0,1.0
1623677518.375,0,0,2.6905999844578736,0.0,1.0
1623677518.84375,0,0,1.8946730491914552,0.0,1.0
1623677519.3125,0,0,1.4798288188784883,0.0,1.0
1623677519.78125,0,0,2.4870913291421157,0.0,1.0
1623677520.25,0,0,2.4976652638821792,0.0,1.0
1623677520.71875,0,0,2.366174501289023,0.0,1.0
1623677521.1875,0,0,2.7829185054978294,0.0,1.0
1623677521.65625,0,0,1.2647104824601354,0.0,1.0
1623677522.125,0,0,2.2239140823194283,0.0,1.0
1623677522.59375,0,0,1.652762250231705,0.0,1.0
1623677523.0625,0,0,2.8497120146128734,0.0,1.0
1623677523.53125,0,0,2.564855106010282,0.0,1.0
1623677524.0,0,0,1.19146596383495,0.0,1.0
1623677524.46875,0,0,1.9661212342043906,0.0,1.0
1623677524.9375,0,0,1.6542013788788086,0.0,1.0
1623677525.40625,0,0,1.6719604067135727,0.0,1.0
1623677525.875,0,0,2.585893761161765,0.0,1.0
1623677526.34375,0,0,0.7538873934038617,0.0,1.0
1623677526.8125,0,0,2.1917864240319465,0.0,1.0
1623677527.28125,0,0,0.0,0.0,1.0
1623677527.75,0,0,1.842885925808775,0.0,1.0
1623677528.21875,0,0,0.9949310928617435,0.0,1.0
1623677528.6875,0,0,1.9134490877930364,0.0,1.0
1623677529.15625,0,0,2.5943625152137813,0.0,1.0
1623677529.625,0,0,0.9450897461440977,0.0,1.0
1623677530.09375,0,0,2.0140241190093096,0.0,1.0
1623677530.5625,0,0,2.7919964816175944,0.0,1.0
1623677531.03125,0,0,2.5578720568354427,0.0,1.0
1623677531.5,0,0,2.2240098084198707,0.0,1.0
1623677531.96875,0,0,1.6101140723287017,0.0,1.0
1623677532.4375,0,0,1.5445826524119863,0.0,1.0
1623677532.90625,0,0,1.4793257018079202,0.0,1.0
1623677533.375,0,0,1.8242970407965318,0.0,1.0
1623677533.84375,0,0,1.1600425352987689,0.0,1.0
1623677534.3125,0,0,2.2453105624791876,0.0,1.0
1623677534.78125,0,0,0.761156165763339,0.0,1.0
1623677535.25,0,0,2.537862274832279,0.0,1.0
1623677535.71875,0,0,2.21114004152904,0.0,1.0
1623677536.1875,0,0,3.3415118648961415,0.0,1.0
1623677536.65625,0,0,1.4073156783221883,0.0,1.0
1623677537.125,0,0,2.268838986786319,0.0,1.0
1623677537.59375,0,0,0.3576816066920315,0.0,1.0
1623677538.0625,0,0,4.225397128775362,0.0,1.0
1623677538.53125,0,0,4.045459098545737,0.0,1.0
1623677539.0,0,0,1.9974277150893867,0.0,1.0
1623677539.46875,0,0,1.6076696810095836,0.0,1.0
1623677539.9375,0,0,1.1479751626521097,0.0,1.0
1623677540.40625,0,0,1.4572720134984534,0.0,1.0
1623677540.875,0,0,1.9847730795449776,0.0,1.0
1623677541.34375,0,0,3.4825600935793966,0.0,1.0
1623677541.8125,0,0,2.627161865944729,0.0,1.0
1623677542.28125,0,0,1.260783309521476,0.0,1.0
1623677542.75,0,0,2.360886134901138,0.0,1.0
1623677543.21875,0,0,2.5237363071627508,0.0,1.0
1623677543.6875,0,0,1.7097085488260744,0.0,1.0
1623677544.15625,0,0,0.8538455688948163,0.0,1.0
1623677544.625,0,0,2.31317250219117,0.0,1.0
1623677545.09375,0,0,0.631821844368742,0.0,1.0
1623677545.5625,0,0,1.474929924378427,0.0,1.0
1623677546.03125,0,0,1.7448859382141129,0.0,1.0
1623677546.5,0,0,2.398393416735331,0.0,1.0
1623677546.96875,0,0,2.1691454241759267,0.0,1.0
1623677547.4375,0,0,2.2459018372422412,0.0,1.0
1623677547.90625,0,0,1.4542128980100146,0.0,1.0
1623677548.375,0,0,1.1467896413954581,0.0,1.0
1623677548.84375,0,0,2.6849493826949344,0.0,1.0
1623677549.3125,0,0,2.5521887614107626,0.0,1.0
1623677549.78125,0,0,0.7673398124879324,0.0,1.0
1623677550.25,0,0,1.9464442930405417,0.0,1.0
1623677550.71875,0,0,1.4430844324046939,0.0,1.0
1623677551.1875,0,0,2.821091456449832,0.0,1.0
1623677551.65625,0,0,3.0311229579877375,0.0,1.0
1623677552.125,0,0,2.838497271173648,0.0,1.0
1623677552.59375,0,0,0.7957025250464396,0.0,1.0
1623677553.0625,0,0,2.0683040869141163,0.0,1.0
1623677553.53125,0,0,2.005788073100045,0.0,1.0
1623677554.0,0,0,1.7033549573788795,0.0,1.0
1623677554.46875,0,0,2.8129845167315626,0.0,1.0
1623677554.9375,0,0,2.368553458749672,0.0,1.0
1623677555.40625,0,0,1.8613554672804935,0.0,1.0
1623677555.875,0,0,0.0,0.0,1.0
1623677556.34375,0,0,1.9482558565088832,0.0,1.0
1623677556.8125,0,0,2.898487475953222,0.0,1.0
1623677557.28125,0,0,1.6374702988858252,0.0,1.0
1623677557.75,0,0,1.1207993561153358,0.0,1.0
1623677558.21875,0,0,2.1502918176207,0.0,1.0
1623677558.6875,0,0,0.6610283244824056,0.0,1.0
1623677559.15625,0,0,1.2186501905942724,0.0,1.0
1623677559.625,0,0,2.0055874875569097,0.0,1.0
1623677560.09375,0,0,1.5116363140343023,0.0,1.0
1623677560.5625,0,0,2.040845032818412,0.0,1.0
1623677561.03125,0,0,0.0,0.0,1.0
1623677561.5,0,0,2.1294805485334822,0.0,1.0
1623677561.96875,0,0,1.8415457690838153,0.0,1.0
1623677562.4375,0,0,2.150062568318433,0.0,1.0
1623677562.90625,0,0,0.0,0.0,1.0
1623677563.375,0,0,1.2280759595847868,0.0,1.0
1623677563.84375,0,0,1.9399325309380513,0.0,1.0
1623677564.3125,0,0,1.3699707936984424,0.0,1.0
1623677564.78125,0,0,1.6806541942070978,0.0,1.0
1623677565.25,0,0,0.8822434204518533,0.0,1.0
1623677565.71875,0,0,1.7726551767429197,0.0,1.0
1623677566.1875,0,0,1.8238893772831462,0.0,1.0
1623677566.65625,0,0,1.8087209100498323,0.0,1.0
1623677567.125,0,0,0.0028024703884202843,0.0,1.0
1623677567.59375,0,0,2.613736169745843,0.0,1.0
1623677568.0625,0,0,1.270758403242926,0.0,1.0
1623677568.53125,0,0,2.5956057958434937,0.0,1.0
1623677569.0,0,0,0.0,0.0,1.0
1623677569.46875,0,0,0.1333445043899142,0.0,1.0
1623677569.9375,0,0,1.864315119822938,0.0,1.0
1623677570.40625,0,0,2.0695398774642633,0.0,1.0
1623677570.875,0,0,2.2890146402249054,0.0,1.0
1623677571.34375,0,0,0.7106150760269143,0.0,1.0
1623677571.8125,0,0,1.6659149924061598,0.0,1.0
1623677572.28125,0,0,0.9513438168902507,0.0,1.0
1623677572.75,0,0,0.4841199093157813,0.0,1.0
1623677573.21875,0,0,1.0909686857786922,0.0,1.0
1623677573.6875,0,0,0.9734880129542265,0.0,1.0
1623677574.15625,0,0,0.0,0.0,1.0
1623677574.625,0,0,1.3589635961134894,0.0,1.0
1623677575.09375,0,0,1.8697135942416858,0.0,1.0
1623677575.5625,0,0,1.3647938946163356,0.0,1.0
1623677576.03125,0,0,1.8301992928210673,0.0,1.0
1623677576.5,0,0,2.666421058182455,0.0,1.0
1623677576.96875,0,0,2.6455274904836372,0.0,1.0
1623677577.4375,0,0,2.5585198771671527,0.0,1.0
1623677577.90625,0,0,1.907603094272183,0.0,1.0
1623677578.375,0,0,0.9518434681934337,0.0,1.0
1623677578.84375,0,0,2.213107737773917,0.0,1.0
1623677579.3125,0,0,1.7378049456585505,0.0,1.0
1623677579.78125,0,0,1.561754213404874,0.0,1.0
1623677580.25,0,0,2.359217342441328,0.0,1.0
1623677580.71875,0,0,1.0229657606717493,0.0,1.0
1623677581.1875,0,0,0.0,0.0,1.0
1623677581.65625,0,0,2.7719215454190085,0.0,1.0
1623677582.125,0,0,1.1394556869673997,0.0,1.0
1623677582.59375,0,0,0.8457043620281239,0.0,1.0
1623677583.0625,0,0,1.7452003520798642,0.0,1.0
1623677583.53125,0,0,1.4291810782522039,0.0,1.0
1623677584.0,0,0,0.8865098364071554,0.0,1.0
1623677584.46875,0,0,1.8594938994908206,0.0,1.0
1623677584.9375,0,0,0.7778353014084337,0.0,1.0
1623677585.40625,0,0,0.9556807090703927,0.0,1.0
1623677585.875,0,0,1.4354918542478898,0.0,1.0
1623677586.34375,0,0,1.139753904992735,0.0,1.0
1623677586.8125,0,0,1.2796086461408165,0.0,1.0
1623677587.28125,0,0,0.5231826350493239,0.0,1.0
1623677587.75,0,0,1.3085881254653062,0.0,1.0
1623677588.21875,0,0,2.101872575484045,0.0,1.0
1623677588.6875,0,0,1.76835622447022,0.0,1.0
1623677589.15625,0,0,0.3610647853733821,0.0,1.0
1623677589.625,0,0,1.3995171647163829,0.0,1.0
1623677590.09375,0,0,1.507135983619195,0.0,1.0
1623677590.5625,0,0,1.403592779781522,0.0,1.0
1623677591.03125,0,0,3.2357382227420053,0.0,1.0
1623677591.5,0,0,1.3070389289557787,0.0,1.0
1623677591.96875,0,0,1.632711862821333,0.0,1.0
1623677592.4375,0,0,0.0,0.0,1.0
1623677592.90625,0,0,1.8075254931943197,0.0,1.0
1623677593.375,0,0,2.099788814335806,0.0,1.0
1623677593.84375,0,0,1.4107331003328298,0.0,1.0
1623677594.3125,0,0,2.164116646327135,0.0,1.0
1623677594.78125,0,0,1.4528179699771808,0.0,1.0
1623677595.25,0,0,1.6117247961788985,0.0,1.0
1623677595.71875,0,0,0.0,0.0,1.0
1623677596.1875,0,0,2.02082593357138,0.0,1.0
1623677596.65625,0,0,1.1321647801165833,0.0,1.0
1623677597.125,0,0,2.3979541242983147,0.0,1.0
1623677597.59375,0,0,0.941168106048667,0.0,1.0
1623677598.0625,0,0,1.0948767919213962,0.0,1.0
1623677598.53125,0,0,0.0,0.0,1.0
1623677599.0,0,0,1.4776268201706668,0.0,1.0
1623677599.46875,0,0,1.102831354356753,0.0,1.0
1623677599.9375,0,0,2.130088076812769,0.0,1.0
1623677600.40625,0,0,1.450105349084447,0.0,1.0
1623677600.875,0,0,1.1941681434236753,0.0,1.0
1623677601.34375,0,0,1.0258105904889625,0.0,1.0
1623677601.8125,0,0,1.71975953175135,0.0,1.0
1623677602.28125,0,0,2.368171151904717,0.0,1.0
1623677602.75,0,0,1.4563402267804328,0.0,1.0
1623677603.21875,0,0,1.910064754101842,0.0,1.0
1623677603.6875,0,0,0.0,0.0,1.0
1623677604.15625,0,0,1.1412462383280122,0.0,1.0
1623677604.625,0,0,1.730138242002464,0.0,1.0
1623677605.09375,0,0,0.6218760697591232,0.0,1.0
1623677605.5625,0,0,1.1456343024194646,0.0,1.0
1623677606.03125,0,0,0.6473209236544085,0.0,1.0
1623677606.5,0,0,2.1294876682263624,0.0,1.0
1623677606.96875,0,0,1.3206265130893171,0.0,1.0
1623677607.4375,0,0,1.20559702459053,0.0,1.0
1623677607.90625,0,0,1.8094114928201481,0.0,1.0
1623677608.375,0,0,0.6056322006704103,0.0,1.0
1623677608.84375,0,0,1.5932821293405963,0.0,1.0
1623677609.3125,0,0,1.732348291329194,0.0,1.0
1623677609.78125,0,0,0.8062780484889615,0.0,1.0
1623677610.25,0,0,1.377667418096384,0.0,1.0
1623677610.71875,0,0,1.983476036499735,0.0,1.0
1623677611.1875,0,0,1.8000617373924828,0.0,1.0
1623677611.65625,0,0,1.7504713974860167,0.0,1.0
1623677612.125,0,0,0.45739447239946174,0.0,1.0
1623677612.59375,0,0,2.079437225756927,0.0,1.0
1623677613.0625,0,0,0.0,0.0,1.0
1623677613.53125,0,0,1.3525722718226345,0.0,1.0
1623677614.0,0,0,2.7025129288977516,0.0,1.0
1623677614.46875,0,0,1.784876797648381,0.0,1.0
1623677614.9375,0,0,1.8737187110473716,0.0,1.0
1623677615.40625,0,0,0.0,0.0,1.0
1623677615.875,0,0,1.9805662020757917,0.0,1.0
1623677616.34375,0,0,1.8226285353882783,0.0,1.0
1623677616.8125,0,0,2.1877675411035473,0.0,1.0
1623677617.28125,0,0,0.7739900110968877,0.0,1.0
1623677617.75,0,0,1.333022347060028,0.0,1.0
1623677618.21875,0,0,1.9406371379806717,0.0,1.0
1623677618.6875,0,0,0.745632999202661,0.0,1.0
1623677619.15625,0,0,1.2227592510495862,0.0,1.0
1623677619.625,0,0,1.567177797048707,0.0,1.0
1623677620.09375,0,0,2.032134106767007,0.0,1.0
1623677620.5625,0,0,1.0567726013965124,0.0,1.0
1623677621.03125,0,0,1.252718238863644,0.0,1.0
1623677621.5,0,0,1.1372078072104863,0.0,1.0
1623677621.96875,0,0,1.643872362185622,0.0,1.0
1623677622.4375,0,0,0.0,0.0,1.0
1623677622.90625,0,0,2.4032777889319803,0.0,1.0
1623677623.375,0,0,2.9078899726465286,0.0,1.0
1623677623.84375,0,0,0.0,0.0,1.0
1623677624.3125,0,0,0.0,0.0,1.0
1623677624.78125,0,0,1.7848768724049944,0.0,1.0
1623677625.25,0,0,0.0,0.0,1.0
1623677625.71875,0,0,0.0,0.0,1.0
1623677626.1875,0,0,2.7817570497285655,0.0,1.0
1623677626.65625,0,0,0.9411044957178357,0.0,1.0
1623677627.125,0,0,1.6125492921249276,0.0,1.0
1623677627.59375,0,0,1.9397067852042287,0.0,1.0
1623677628.0625,0,0,3.3333345305150903,0.0,1.0
1623677628.53125,0,0,0.0,0.0,1.0
1623677629.0,0,0,1.709215141058194,0.0,1.0
1623677629.46875,0,0,1.8291099937000814,0.0,1.0
1623677629.9375,0,0,2.6161966402537398,0.0,1.0
1623677630.40625,0,0,0.0,0.0,1.0
1623677630.875,0,0,1.8425194871732886,0.0,1.0
1623677631.34375,0,0,2.545383342915502,0.0,1.0
1623677631.8125,0,0,3.7140161307732615,0.0,1.0
1623677632.28125,0,0,0.0,0.0,1.0
1623677632.75,0,0,2.8031873538266217,0.0,1.0
1623677633.21875,0,0,2.1444387427573095,0.0,1.0
1623677633.6875,0,0,0.0,0.0,1.0
1623677634.15625,0,0,1.7852548017030383,0.0,1.0
1623677634.625,0,0,2.398973728313183,0.0,1.0
1623677635.09375,0,0,0.0,0.0,1.0
1623677635.5625,0,0,2.7210843370270354,0.0,1.0
1623677636.03125,0,0,1.8579478691823095,0.0,1.0
1623677636.5,0,0,2.8985935407169245,0.0,1.0
1623677636.96875,0,0,0.0,0.0,1.0
1623677637.4375,0,0,2.1040699907163223,0.0,1.0
1623677637.90625,0,0,1.4528381928691798,0.0,1.0
1623677638.375,0,0,1.3582571029235995,0.0,1.0
1623677638.84375,0,0,0.6828993882736585,0.0,1.0
1623677639.3125,0,0,2.60396774744921,0.0,1.0
1623677639.78125,0,0,2.003765332658003,0.0,1.0
1623677640.25,0,0,0.0,0.0,1.0
1623677640.71875,0,0,1.7842280847975172,0.0,1.0
1623677641.1875,0,0,1.2593552724721955,0.0,1.0
1623677641.65625,0,0,2.046169458037742,0.0,1.0
1623677642.125,0,0,1.2302793178419784,0.0,1.0
1623677642.59375,0,0,1.0702765866723014,0.0,1.0
1623677643.0625,0,0,1.3437465246787006,0.0,1.0
1623677643.53125,0,0,1.088961351012673,0.0,1.0
1623677644.0,0,0,1.0143200774449905,0.0,1.0
1623677644.46875,0,0,1.7606943061523517,0.0,1.0
1623677644.9375,0,0,2.027610404141666,0.0,1.0
1623677645.40625,0,0,2.4078333499812326,0.0,1.0
1623677645.875,0,0,1.4703506604988217,0.0,1.0
1623677646.34375,0,0,0.7656075284442393,0.0,1.0
1623677646.8125,0,0,1.4498148316206516,0.0,1.0
1623677647.28125,0,0,2.0855109367802434,0.0,1.0
1623677647.75,0,0,1.4397042165790235,0.0,1.0
1623677648.21875,0,0,1.3947508134783884,0.0,1.0
1623677648.6875,0,0,2.576647634545987,0.0,1.0
1623677649.15625,0,0,0.5608501159801661,0.0,1.0
1623677649.625,0,0,2.649092672028385,0.0,1.0
1623677650.09375,0,0,0.0,0.0,1.0
1623677650.5625,0,0,2.499657429425686,0.0,1.0
1623677651.03125,0,0,2.1965293962534873,0.0,1.0
1623677651.5,0,0,1.9895850609324157,0.0,1.0
1623677651.96875,0,0,2.7479736796853778,0.0,1.0
1623677652.4375,0,0,0.0,0.0,1.0
1623677652.90625,0,0,0.6445014354025496,0.0,1.0
1623677653.375,0,0,2.756412400433637,0.0,1.0
1623677653.84375,0,0,1.6752328654312298,0.0,1.0
1623677654.3125,0,0,1.261514194515614,0.0,1.0
1623677654.78125,0,0,0.0,0.0,1.0
1623677655.25,0,0,1.3622110550208935,0.0,1.0
1623677655.71875,0,0,0.9960442274298796,0.0,1.0
1623677656.1875,0,0,1.5581562136130602,0.0,1.0
1623677656.65625,0,0,1.7102104287747257,0.0,1.0
1623677657.125,0,0,1.7268388664795324,0.0,1.0
1623677657.59375,0,0,0.0,0.0,1.0
1623677658.0625,0,0,1.8378586911558437,0.0,1.0
1623677658.53125,0,0,1.8072347423297448,0.0,1.0
1623677659.0,0,0,1.9521370478429747,0.0,1.0
1623677659.46875,0,0,0.9727373044518867,0.0,1.0
1623677659.9375,0,0,1.4181650005745339,0.0,1.0
1623677660.40625,0,0,0.7907878952810959,0.0,1.0
1623677660.875,0,0,1.2367085677835317,0.0,1.0
1623677661.34375,0,0,1.4525877036961585,0.0,1.0
1623677661.8125,0,0,2.3704680943816805,0.0,1.0
1623677662.28125,0,0,2.6848131053529785,0.0,1.0
1623677662.75,0,0,0.0,0.0,1.0
1623677663.21875,0,0,1.808456917233242,0.0,1.0
1623677663.6875,0,0,1.2572503282659229,0.0,1.0
1623677664.15625,0,0,1.6150776463858767,0.0,1.0
1623677664.625,0,0,1.6406671664298667,0.0,1.0
1623677665.09375,0,0,1.1212380758066378,0.0,1.0
1623677665.5625,0,0,1.272128694615216,0.0,1.0
1623677666.03125,0,0,0.0,0.0,1.0
1623677666.5,0,0,1.6067899119730764,0.0,1.0
1623677666.96875,0,0,0.35498227339741245,0.0,1.0
1623677667.4375,0,0,-0.31945728948904756,0.0,1.0
1623677667.90625,0,0,2.3992345575464755,0.0,1.0
1623677668.375,0,0,2.5649259719547395,0.0,1.0
1623677668.84375,0,0,2.4740899639981015,0.0,1.0
1623677669.3125,0,0,1.5404373348580902,0.0,1.0
1623677669.78125,0,0,1.7157296258641068,0.0,1.0
1623677670.25,0,0,0.3652638182692703,0.0,1.0
1623677670.71875,0,0,1.858267979085421,0.0,1.0
1623677671.1875,0,0,2.2859219195382217,0.0,1.0
1623677671.65625,0,0,2.1654383248217917,0.0,1.0
1623677672.125,0,0,1.5461570125485675,0.0,1.0
1623677672.59375,0,0,1.8591542867244144,0.0,1.0
1623677673.0625,0,0,0.9408595742787879,0.0,1.0
1623677673.53125,0,0,2.49292987001053,0.0,1.0
1623677674.0,0,0,1.7524301259815445,0.0,1.0
1623677674.46875,0,0,1.224027107628994,0.0,1.0
1623677674.9375,0,0,1.570990150593574,0.0,1.0
1623677675.40625,0,0,2.3110126530007844,0.0,1.0
1623677675.875,0,0,0.0,0.0,1.0
1623677676.34375,0,0,1.6225227909669333,0.0,1.0
1623677676.8125,0,0,1.8090592833374322,0.0,1.0
1623677677.28125,0,0,0.8531936560125605,0.0,1.0
1623677677.75,0,0,1.9627198757648687,0.0,1.0
1623677678.21875,0,0,2.662699612144187,0.0,1.0
1623677678.6875,0,0,0.0,0.0,1.0
1623677679.15625,0,0,1.1010781463363524,0.0,1.0
1623677679.625,0,0,3.583860636681177,0.0,1.0
1623677680.09375,0,0,2.8762178358075796,0.0,1.0
1623677680.5625,0,0,1.2111946453856421,0.0,1.0
1623677681.03125,0,0,1.0249617982648982,0.0,1.0
1623677681.5,0,0,1.9090983764442677,0.0,1.0
1623677681.96875,0,0,1.8614893008811988,0.0,1.0
1623677682.4375,0,0,1.901308426928634,0.0,1.0
1623677682.90625,0,0,2.9493782817806395,0.0,1.0
1623677683.375,0,0,1.5904093340542451,0.0,1.0
1623677683.84375,0,0,0.8693167706192073,0.0,1.0
1623677684.3125,0,0,1.2845919572956566,0.0,1.0
1623677684.78125,0,0,0.8970863666434336,0.0,1.0
1623677685.25,0,0,0.8304115409834952,0.0,1.0
1623677685.71875,0,0,1.381916007964583,0.0,1.0
1623677686.1875,0,0,1.4688474716570636,0.0,1.0
1623677686.65625,0,0,0.0,0.0,1.0
1623677687.125,0,0,1.7738991648096694,0.0,1.0
1623677687.59375,0,0,0.9237437103905657,0.0,1.0
1623677688.0625,0,0,1.5588511860156864,0.0,1.0
1623677688.53125,0,0,0.9588751912701217,0.0,1.0
1623677689.0,0,0,2.3986472288050193,0.0,1.0
1623677689.46875,0,0,0.9344773010955936,0.0,1.0
1623677689.9375,0,0,0.8652164207700789,0.0,1.0
1623677690.40625,0,0,2.2873620179772174,0.0,1.0
1623677690.875,0,0,1.5595668838516294,0.0,1.0
1623677691.34375,0,0,2.7267252938113264,0.0,1.0
1623677691.8125,0,0,1.4722193338541534,0.0,1.0
1623677692.28125,0,0,0.0,0.0,1.0
1623677692.75,0,0,3.0488623543342426,0.0,1.0
1623677693.21875,0,0,1.4813928228608462,0.0,1.0
1623677693.6875,0,0,2.0590699788172406,0.0,1.0
1623677694.15625,0,0,1.794890377038011,0.0,1.0
1623677694.625,0,0,0.0,0.0,1.0
1623677695.09375,0,0,0.0726051871997454,0.0,1.0
1623677695.5625,0,0,2.7653736649656278,0.0,1.0
1623677696.03125,0,0,1.2119691969683517,0.0,1.0
1623677696.5,0,0,0.7898787083709355,0.0,1.0
1623677696.96875,0,0,1.9185330170301986,0.0,1.0
1623677697.4375,0,0,1.6622837432154942,0.0,1.0
1623677697.90625,0,0,1.9579585932207642,0.0,1.0
1623677698.375,0,0,1.851998567938235,0.0,1.0
1623677698.84375,0,0,2.546640227530149,0.0,1.0
1623677699.3125,0,0,1.861276490143595,0.0,1.0
1623677699.78125,0,0,1.1976801998126516,0.0,1.0
1623677700.25,0,0,1.4012474267613964,0.0,1.0
1623677700.71875,0,0,1.3116202767706653,0.0,1.0
1623677701.1875,0,0,1.32100792358629,0.0,1.0
1623677701.65625,0,0,1.8648428998280953,0.0,1.0
1623677702.125,0,0,1.2797175570791097,0.0,1.0
1623677702.59375,0,0,2.576595144082186,0.0,1.0
1623677703.0625,0,0,2.271326199070512,0.0,1.0
1623677703.53125,0,0,2.936347073845402,0.0,1.0
1623677704.0,0,0,2.476550394368347,0.0,1.0
1623677704.46875,0,0,0.0,0.0,1.0
1623677704.9375,0,0,1.72279338864775,0.0,1.0
1623677705.40625,0,0,1.7548715453962394,0.0,1.0
1623677705.875,0,0,2.2668293624985774,0.0,1.0
1623677706.34375,0,0,1.5297781262697625,0.0,1.0
1623677706.8125,0,0,1.7793407485652915,0.0,1.0
1623677707.28125,0,0,0.0,0.0,1.0
1623677707.75,0,0,3.021509097639565,0.0,1.0
1623677708.21875,0,0,1.1339222614721192,0.0,1.0
1623677708.6875,0,0,0.0,0.0,1.0
1623677709.15625,0,0,1.695204746779153,0.0,1.0
1623677709.625,0,0,1.9463961874982678,0.0,1.0
1623677710.09375,0,0,1.9222457670278963,0.0,1.0
1623677710.5625,0,0,1.9359117399220058,0.0,1.0
1623677711.03125,0,0,1.5283701374543037,0.0,1.0
1623677711.5,0,0,0.0,0.0,1.0
1623677711.96875,0,0,2.0561490364148427,0.0,1.0
1623677712.4375,0,0,1.351723343844042,0.0,1.0
1623677712.90625,0,0,2.0360578546403048,0.0,1.0
1623677713.375,0,0,0.0,0.0,1.0
1623677713.84375,0,0,0.0,0.0,1.0
1623677714.3125,0,0,1.986893855752111,0.0,1.0
1623677714.78125,0,0,1.34917798956804,0.0,1.0
1623677715.25,0,0,2.452377386591026,0.0,1.0
1623677715.71875,0,0,2.328370604482187,0.0,1.0
1623677716.1875,0,0,1.2233634078102056,0.0,1.0
1623677716.65625,0,0,0.6611541558732307,0.0,1.0
1623677717.125,0,0,1.5499366781590969,0.0,1.0
1623677717.59375,0,0,1.505259021949754,0.0,1.0
1623677718.0625,0,0,1.7488494214376444,0.0,1.0
1623677718.53125,0,0,1.0572118613063377,0.0,1.0
1623677719.0,0,0,1.521813609479657,0.0,1.0
1623677719.46875,0,0,0.918375329185547,0.0,1.0
1623677719.9375,0,0,1.9725273776895378,0.0,1.0
1623677720.40625,0,0,2.026420007941773,0.0,1.0
1623677720.875,0,0,1.2739873767024164,0.0,1.0
1623677721.34375,0,0,2.526024607272402,0.0,1.0
1623677721.8125,0,0,1.4740524825758117,0.0,1.0
1623677722.28125,0,0,0.4693362454233673,0.0,1.0
1623677722.75,0,0,1.3155972160408926,0.0,1.0
1623677723.21875,0,0,1.4002083701085983,0.0,1.0
1623677723.6875,0,0,2.313099267883613,0.0,1.0
1623677724.15625,0,0,0.3177648248419263,0.0,1.0
1623677724.625,0,0,0.21478427769493746,0.0,1.0
1623677725.09375,0,0,0.9682309548671847,0.0,1.0
1623677725.5625,0,0,4.420450040582802,0.0,1.0
1623677726.03125,0,0,2.944932274438179,0.0,1.0
1623677726.5,0,0,-9.853036183277503,0.0,1.0
1623677726.96875,0,0,0.0,0.0,2.0
1623677727.4375,0,0,51.403750844317265,0.0,2.0
1623677727.90625,0,0,0.0,0.0,2.0
1623677728.375,0,0,70.77402510268853,0.0,2.0
1623677728.84375,0,0,0.0,0.0,2.0
1623677729.3125,0,0,0.0,0.0,2.0
1623677729.78125,0,0,140.69359473197954,0.0,2.0
1623677730.25,0,0,-0.5736685907968957,0.0,2.0
1623677730.71875,0,0,165.7062478706291,0.0,2.0
1623677731.1875,0,0,0.0,0.0,2.0
1623677731.65625,0,0,0.0,0.0,2.0
1623677732.125,0,0,142.13603527319484,0.0,2.0
1623677732.59375,0,0,41.36696231698334,0.0,2.0
1623677733.0625,0,0,0.0,0.0,2.0
1623677733.53125,0,0,0.0,0.0,2.0
1623677734.0,0,0,20.962271478765548,0.0,2.0
1623677734.46875,0,0,0.0,0.0,2.0
1623677734.9375,0,0,4.441060484996255,0.0,2.0
1623677735.40625,0,0,2.7403389914385743,0.0,2.0
1623677735.875,0,0,2.487008930352215,0.0,2.0
1623677736.34375,0,0,1.773968433995731,0.0,2.0
1623677736.8125,0,0,1.349044568585232,0.0,2.0
1623677737.28125,0,0,4.772556979723238,0.0,2.0
1623677737.75,0,0,7.328495153815141,0.0,2.0
1623677738.21875,0,0,1.6039635213624528,0.0,2.0
1623677738.6875,0,0,33.36065424152835,0.0,2.0
1623677739.15625,0,0,8.984671129299356,0.0,2.0
1623677739.625,0,0,0.0,0.0,2.0
1623677740.09375,0,0,23.54093543761307,0.0,2.0
1623677740.5625,0,0,0.0,0.0,2.0
1623677741.03125,0,0,27.86749960817103,0.0,2.0
1623677741.5,0,0,4.504926204652641,0.0,2.0
1623677741.96875,0,0,1.0288098274682007,0.0,2.0
1623677742.4375,0,0,8.108951919183394,0.0,2.0
1623677742.90625,0,0,0.0,0.0,2.0
1623677743.375,0,0,4.1954410885801465,0.0,2.0
1623677743.84375,0,0,0.4530750604141108,0.0,2.0
1623677744.3125,0,0,2.161675339741758,0.0,2.0
1623677744.78125,0,0,2.373467523267037,0.0,2.0
1623677745.25,0,0,1.704430652308283,0.0,2.0
1623677745.71875,0,0,1.948521020748545,0.0,2.0
1623677746.1875,0,0,1.6043931102427258,0.0,2.0
1623677746.65625,0,0,2.5334378920022145,0.0,2.0
1623677747.125,0,0,2.4707813211291967,0.0,2.0
1623677747.59375,0,0,0.0,0.0,2.0
1623677748.0625,0,0,0.0,0.0,2.0
1623677748.53125,0,0,2.2053433722503923,0.0,2.0
1623677749.0,0,0,0.9774728651711839,0.0,2.0
1623677749.46875,0,0,2.0424397887921963,0.0,2.0
1623677749.9375,0,0,1.6595811128176365,0.0,2.0
1623677750.40625,0,0,3.2925937349992744,0.0,2.0
1623677750.875,0,0,3.055860593406147,0.0,2.0
1623677751.34375,0,0,1.7623388278557368,0.0,2.0
1623677751.8125,0,0,1.5507490690510815,0.0,2.0
1623677752.28125,0,0,0.6764607996176271,0.0,2.0
1623677752.75,0,0,1.3238664206019186,0.0,2.0
1623677753.21875,0,0,2.191749983748169,0.0,2.0
1623677753.6875,0,0,2.9682765561324715,0.0,2.0
1623677754.15625,0,0,0.0,0.0,2.0
1623677754.625,0,0,0.4497671775431022,0.0,2.0
1623677755.09375,0,0,13.263538012007631,0.0,2.0
1623677755.5625,0,0,-2.06393512001398,0.0,2.0
1623677756.03125,0,0,8.258586862940602,0.0,2.0
1623677756.5,0,0,0.0,0.0,2.0
1623677756.96875,0,0,120.1243540705005,0.0,2.0
1623677757.4375,0,0,0.0,0.0,2.0
1623677757.90625,0,0,26.118108433361446,0.0,2.0
1623677758.375,0,0,0.0,0.0,2.0
1623677758.84375,0,0,63.112836101947416,0.0,2.0
1623677759.3125,0,0,0.0,0.0,2.0
1623677759.78125,0,0,-13.305389286683535,0.0,2.0
1623677760.25,0,0,44.00325721451489,0.0,2.0
1623677760.71875,0,0,42.21857033472117,0.0,2.0
1623677761.1875,0,0,0.0,0.0,2.0
1623677761.65625,0,0,-27.72451181665934,0.0,2.0
1623677762.125,0,0,0.0,0.0,2.0
1623677762.59375,0,0,113.84514653573487,0.0,2.0
1623677763.0625,0,0,0.0,0.0,2.0
1623677763.53125,0,0,41.43690599509833,0.0,2.0
1623677764.0,0,0,53.810596874509116,0.0,2.0
1623677764.46875,0,0,0.0,0.0,2.0
1623677764.9375,0,0,0.0,0.0,2.0
1623677765.40625,0,0,17.003714299159686,0.0,2.0
1623677765.875,0,0,0.3645892851476253,0.0,2.0
1623677766.34375,0,0,-11.617260200104964,0.0,2.0
1623677766.8125,0,0,79.3205226306366,0.0,2.0
1623677767.28125,0,0,0.0,0.0,2.0
1623677767.75,0,0,78.3845399724375,0.0,2.0
1623677768.21875,0,0,0.0,0.0,2.0
1623677768.6875,0,0,159.55414290366903,0.0,2.0
1623677769.15625,0,0,0.0,0.0,2.0
1623677769.625,0,0,61.251131614415506,0.0,2.0
1623677770.09375,0,0,0.0,0.0,2.0
1623677770.5625,0,0,91.9825380850463,0.0,2.0
1623677771.03125,0,0,0.0,0.0,2.0
1623677771.5,0,0,0.0,0.0,2.0
1623677771.96875,0,0,0.0,0.0,2.0
1623677772.4375,0,0,76.04276599414591,0.0,2.0
1623677772.90625,0,0,0.0,0.0,2.0
1623677773.375,0,0,0.0,0.0,2.0
1623677773.84375,0,0,0.0,0.0,2.0
1623677774.3125,0,0,28.94676809574219,0.0,2.0
1623677774.78125,0,0,0.0,0.0,2.0
1623677775.25,0,0,0.0,0.0,2.0
1623677775.71875,0,0,104.22233289672384,0.0,2.0
1623677776.1875,0,0,39.52440759079209,0.0,2.0
1623677776.65625,0,0,-15.576504608279615,0.0,2.0
1623677777.125,0,0,4.360424618520271,0.0,2.0
1623677777.59375,0,0,67.9322801193826,0.0,2.0
1623677778.0625,0,0,0.0,0.0,2.0
1623677778.53125,0,0,9.291067847897713,0.0,2.0
1623677779.0,0,0,50.61544445889321,0.0,2.0
1623677779.46875,0,0,9.16125730478412,0.0,2.0
1623677779.9375,0,0,32.53398303901234,0.0,2.0
1623677780.40625,0,0,23.518886461486808,0.0,2.0
1623677780.875,0,0,0.0,0.0,2.0
1623677781.34375,0,0,0.0,0.0,2.0
1623677781.8125,0,0,82.9667400371311,0.0,2.0
1623677782.28125,0,0,0.0,0.0,2.0
1623677782.75,0,0,93.82298699067627,0.0,2.0
1623677783.21875,0,0,-46.84513915051536,0.0,2.0
1623677783.6875,0,0,-1.543239377815528,0.0,2.0
1623677784.15625,0,0,42.13041858369703,0.0,2.0
1623677784.625,0,0,39.848970905763856,0.0,2.0
1623677785.09375,0,0,0.0,0.0,2.0
1623677785.5625,0,0,52.36980506813086,0.0,2.0
1623677786.03125,0,0,0.0,0.0,2.0
1623677786.5,0,0,24.917787725773582,0.0,2.0
1623677786.96875,0,0,0.0,0.0,2.0
1623677787.4375,0,0,68.1698133657065,0.0,2.0
1623677787.90625,0,0,0.0,0.0,2.0
1623677788.375,0,0,145.3082859359235,0.0,2.0
1623677788.84375,0,0,0.0,0.0,2.0
1623677789.3125,0,0,35.43599025750825,0.0,2.0
1623677789.78125,0,0,0.0,0.0,2.0
1623677790.25,0,0,35.537193074680566,0.0,2.0
1623677790.71875,0,0,0.0,0.0,2.0
1623677791.1875,0,0,116.25101439152782,0.0,2.0
1623677791.65625,0,0,-30.85209451224026,0.0,2.0
1623677792.125,0,0,0.0,0.0,2.0
1623677792.59375,0,0,34.28622043342398,0.0,2.0
1623677793.0625,0,0,0.0,0.0,2.0
1623677793.53125,0,0,0.0,0.0,2.0
1623677794.0,0,0,20.691685978936064,0.0,2.0
1623677794.46875,0,0,22.49014890717476,0.0,2.0
1623677794.9375,0,0,25.194640435275648,0.0,2.0
1623677795.40625,0,0,0.0,0.0,2.0
1623677795.875,0,0,19.042148019653265,0.0,2.0
1623677796.34375,0,0,6.012966261089189,0.0,2.0
1623677796.8125,0,0,1.0145013057468273,0.0,2.0
1623677797.28125,0,0,11.02381461698626,0.0,2.0
1623677797.75,0,0,0.9883947453837303,0.0,2.0
1623677798.21875,0,0,7.1328401606710985,0.0,2.0
1623677798.6875,0,0,0.0,0.0,2.0
1623677799.15625,0,0,0.7671230984963987,0.0,2.0
1623677799.625,0,0,5.57851738584904,0.0,2.0
1623677800.09375,0,0,4.367300389623614,0.0,2.0
1623677800.5625,0,0,4.19596922852413,0.0,2.0
1623677801.03125,0,0,2.135101389649392,0.0,2.0
1623677801.5,0,0,0.0,0.0,2.0
1623677801.96875,0,0,0.0,0.0,2.0
1623677802.4375,0,0,0.0,0.0,2.0
1623677802.90625,0,0,0.0,0.0,2.0
1623677803.375,0,0,2.6675439162922485,0.0,2.0
1623677803.84375,0,0,21.080884164608534,0.0,2.0
1623677804.3125,0,0,5.377789434021193,0.0,2.0
1623677804.78125,0,0,8.137761339802934,0.0,2.0
1623677805.25,0,0,3.9433826984895104,0.0,2.0
1623677805.71875,0,0,2.1130276474848664,0.0,2.0
1623677806.1875,0,0,4.108301538474249,0.0,2.0
1623677806.65625,0,0,2.7470366735933207,0.0,2.0
1623677807.125,0,0,2.5280370345635563,0.0,2.0
1623677807.59375,0,0,3.229643996645928,0.0,2.0
1623677808.0625,0,0,1.9226536355481492,0.0,2.0
1623677808.53125,0,0,2.358558984364857,0.0,2.0
1623677809.0,0,0,0.8294128434570323,0.0,2.0
1623677809.46875,0,0,0.0,0.0,2.0
1623677809.9375,0,0,0.0,0.0,2.0
1623677810.40625,0,0,0.5823606595567915,0.0,2.0
1623677810.875,0,0,2.010521682583337,0.0,2.0
1623677811.34375,0,0,35.47192287893695,0.0,2.0
1623677811.8125,0,0,0.0,0.0,2.0
1623677812.28125,0,0,12.707683031976059,0.0,2.0
1623677812.75,0,0,10.656245411600832,0.0,2.0
1623677813.21875,0,0,-5.546026344822644,0.0,2.0
1623677813.6875,0,0,17.007488755865616,0.0,2.0
1623677814.15625,0,0,0.0,0.0,2.0
1623677814.625,0,0,9.076650521507275,0.0,2.0
1623677815.09375,0,0,6.44348490464808,0.0,2.0
1623677815.5625,0,0,16.997759492986827,0.0,2.0
1623677816.03125,0,0,0.0,0.0,2.0
1623677816.5,0,0,20.09509005702471,0.0,2.0
1623677816.96875,0,0,4.620771209343848,0.0,2.0
1623677817.4375,0,0,0.0,0.0,2.0
1623677817.90625,0,0,4.244380094423802,0.0,2.0
1623677818.375,0,0,16.303903834522945,0.0,2.0
1623677818.84375,0,0,9.652272645363196,0.0,2.0
1623677819.3125,0,0,1.5696185289312845,0.0,2.0
1623677819.78125,0,0,0.6098434441662561,0.0,2.0
1623677820.25,0,0,2.6937974228551713,0.0,2.0
1623677820.71875,0,0,3.545674076065274,0.0,2.0
1623677821.1875,0,0,4.091032153944058,0.0,2.0
1623677821.65625,0,0,3.031415413457996,0.0,2.0
1623677822.125,0,0,1.3694255450597812,0.0,2.0
1623677822.59375,0,0,3.5263429056489484,0.0,2.0
1623677823.0625,0,0,3.2319015844688073,0.0,2.0
1623677823.53125,0,0,2.8882884853369273,0.0,2.0
1623677824.0,0,0,3.216556842665919,0.0,2.0
1623677824.46875,0,0,3.8312467298790076,0.0,2.0
1623677824.9375,0,0,2.261904772326588,0.0,2.0
1623677825.40625,0,0,2.4492511481831913,0.0,2.0
1623677825.875,0,0,2.9886101584475226,0.0,2.0
1623677826.34375,0,0,3.035497956166167,0.0,2.0
1623677826.8125,0,0,1.4504886935125358,0.0,2.0
1623677827.28125,0,0,2.4320441919506535,0.0,2.0
1623677827.75,0,0,2.86968076003567,0.0,2.0
1623677828.21875,0,0,2.0802590562319256,0.0,2.0
1623677828.6875,0,0,0.0,0.0,2.0
1623677829.15625,0,0,0.0,0.0,2.0
1623677829.625,0,0,2.344222146775044,0.0,2.0
1623677830.09375,0,0,2.984774392427809,0.0,2.0
1623677830.5625,0,0,2.6840840903664054,0.0,2.0
1623677831.03125,0,0,1.8221946281707333,0.0,2.0
1623677831.5,0,0,2.5306436393874296,0.0,2.0
1623677831.96875,0,0,3.539817795255365,0.0,2.0
1623677832.4375,0,0,3.58254140070379,0.0,2.0
1623677832.90625,0,0,1.5594250233869829,0.0,2.0
1623677833.375,0,0,3.007534049531201,0.0,2.0
1623677833.84375,0,0,2.5797841897461455,0.0,2.0
1623677834.3125,0,0,3.289832304615438,0.0,2.0
1623677834.78125,0,0,3.559042188662599,0.0,2.0
1623677835.25,0,0,1.9027517702994037,0.0,2.0
1623677835.71875,0,0,3.4390139639205763,0.0,2.0
1623677836.1875,0,0,3.2451971513894065,0.0,2.0
1623677836.65625,0,0,3.84515742757761,0.0,2.0
1623677837.125,0,0,2.693573576348855,0.0,2.0
1623677837.59375,0,0,3.810114040253338,0.0,2.0
1623677838.0625,0,0,3.359249762366093,0.0,2.0
1623677838.53125,0,0,4.964183049810469,0.0,2.0
1623677839.0,0,0,2.7295508392151744,0.0,2.0
1623677839.46875,0,0,2.3068913520137313,0.0,2.0
1623677839.9375,0,0,4.01897671445523,0.0,2.0
1623677840.40625,0,0,2.8875347643617295,0.0,2.0
1623677840.875,0,0,2.866762506768924,0.0,2.0
1623677841.34375,0,0,3.5629991926128897,0.0,2.0
1623677841.8125,0,0,2.97941951894341,0.0,2.0
1623677842.28125,0,0,3.415065297443474,0.0,2.0
1623677842.75,0,0,2.951084746915325,0.0,2.0
1623677843.21875,0,0,4.358643361449397,0.0,2.0
1623677843.6875,0,0,3.189945810059565,0.0,2.0
1623677844.15625,0,0,2.9310501669015143,0.0,2.0
1623677844.625,0,0,3.2483737669855333,0.0,2.0
1623677845.09375,0,0,2.4654659230386406,0.0,2.0
1623677845.5625,0,0,3.359206176898288,0.0,2.0
1623677846.03125,0,0,4.091020567022328,0.0,2.0
1623677846.5,0,0,2.8068174236279217,0.0,2.0
1623677846.96875,0,0,3.6816035510346508,0.0,2.0
1623677847.4375,0,0,2.1722520740787425,0.0,2.0
1623677847.90625,0,0,2.904602332415998,0.0,2.0
1623677848.375,0,0,3.5039773814044493,0.0,2.0
1623677848.84375,0,0,13.6997759169829,0.0,2.0
1623677849.3125,0,0,0.0,0.0,2.0
1623677849.78125,0,0,2.123095309294913,0.0,2.0
1623677850.25,0,0,4.693465370954968,0.0,2.0
1623677850.71875,0,0,2.998950203409692,0.0,2.0
1623677851.1875,0,0,5.172959311648781,0.0,2.0
1623677851.65625,0,0,3.079535251083617,0.0,2.0
1623677852.125,0,0,3.1274960221260564,0.0,2.0
1623677852.59375,0,0,5.851519720764545,0.0,2.0
1623677853.0625,0,0,5.59284156011435,0.0,2.0
1623677853.53125,0,0,2.720040039169222,0.0,2.0
1623677854.0,0,0,3.5156998316018258,0.0,2.0
1623677854.46875,0,0,6.264348504216752,0.0,2.0
1623677854.9375,0,0,-1.1591586849935571,0.0,2.0
1623677855.40625,0,0,-2.0511060305118773,0.0,2.0
1623677855.875,0,0,10.881200410702476,0.0,2.0
1623677856.34375,0,0,15.638581854448312,0.0,2.0
1623677856.8125,0,0,0.0,0.0,2.0
1623677857.28125,0,0,40.673525386503016,0.0,2.0
1623677857.75,0,0,0.0,0.0,2.0
1623677858.21875,0,0,13.127937145409707,0.0,2.0
1623677858.6875,0,0,0.0,0.0,2.0
1623677859.15625,0,0,1.9546368587425147,0.0,2.0
1623677859.625,0,0,10.509298142574682,0.0,2.0
1623677860.09375,0,0,4.315475391210254,0.0,2.0
1623677860.5625,0,0,2.228471274673887,0.0,2.0
1623677861.03125,0,0,1.1082156779060433,0.0,2.0
1623677861.5,0,0,3.182356336068492,0.0,2.0
1623677861.96875,0,0,1.9674788990760703,0.0,2.0
1623677862.4375,0,0,0.0,0.0,2.0
1623677862.90625,0,0,1.1194975717997986,0.0,2.0
1623677863.375,0,0,4.423929992022681,0.0,2.0
1623677863.84375,0,0,8.611936330141926,0.0,2.0
1623677864.3125,0,0,2.386027500853337,0.0,2.0
1623677864.78125,0,0,4.269219771036887,0.0,2.0
1623677865.25,0,0,5.50898182100909,0.0,2.0
1623677865.71875,0,0,1.4802491299103433,0.0,2.0
1623677866.1875,0,0,2.311583580079797,0.0,2.0
1623677866.65625,0,0,3.1318831120152666,0.0,2.0
1623677867.125,0,0,4.2263051978338595,0.0,2.0
1623677867.59375,0,0,2.977517808415405,0.0,2.0
1623677868.0625,0,0,2.902084176570668,0.0,2.0
1623677868.53125,0,0,3.3496036183042945,0.0,2.0
1623677869.0,0,0,2.959338743995161,0.0,2.0
1623677869.46875,0,0,1.2459301859159213,0.0,2.0
1623677869.9375,0,0,4.124625305057692,0.0,2.0
1623677870.40625,0,0,2.1359510089635716,0.0,2.0
1623677870.875,0,0,3.3529431342702214,0.0,2.0
1623677871.34375,0,0,3.4697215240988273,0.0,2.0
1623677871.8125,0,0,2.0997375283605586,0.0,2.0
1623677872.28125,0,0,1.8837201664374494,0.0,2.0
1623677872.75,0,0,4.398056705609113,0.0,2.0
1623677873.21875,0,0,1.3815113206308465,0.0,2.0
1623677873.6875,0,0,2.6895871662133426,0.0,2.0
1623677874.15625,0,0,2.0988667115018553,0.0,2.0
1623677874.625,0,0,4.702846925332402,0.0,2.0
1623677875.09375,0,0,0.0,0.0,2.0
1623677875.5625,0,0,1.902234879808445,0.0,2.0
1623677876.03125,0,0,3.6722802027780523,0.0,2.0
1623677876.5,0,0,-1.2852212954074473,0.0,2.0
1623677876.96875,0,0,5.455296845442179,0.0,2.0
1623677877.4375,0,0,0.0,0.0,2.0
1623677877.90625,0,0,2.258344689356097,0.0,2.0
1623677878.375,0,0,3.3976643340218473,0.0,2.0
1623677878.84375,0,0,0.0,0.0,2.0
1623677879.3125,0,0,2.8189346607394583,0.0,2.0
1623677879.78125,0,0,3.8941791197959956,0.0,2.0
1623677880.25,0,0,2.7628190482043427,0.0,2.0
1623677880.71875,0,0,3.9081889325024726,0.0,2.0
1623677881.1875,0,0,3.2003125907745265,0.0,2.0
1623677881.65625,0,0,0.0,0.0,2.0
1623677882.125,0,0,2.7121045563486956,0.0,2.0
1623677882.59375,0,0,0.0,0.0,2.0
1623677883.0625,0,0,4.343625796319498,0.0,2.0
1623677883.53125,0,0,2.55051703078359,0.0,2.0
1623677884.0,0,0,2.374136452560196,0.0,2.0
1623677884.46875,0,0,0.0,0.0,2.0
1623677884.9375,0,0,2.594818355615212,0.0,2.0
1623677885.40625,0,0,2.0610923149075515,0.0,2.0
1623677885.875,0,0,2.2416473425313823,0.0,2.0
1623677886.34375,0,0,2.5510092792024155,0.0,2.0
1623677886.8125,0,0,1.6174857778929916,0.0,2.0
1623677887.28125,0,0,2.8053812308235813,0.0,2.0
1623677887.75,0,0,1.4126212048912061,0.0,2.0
1623677888.21875,0,0,3.2070297591278196,0.0,2.0
1623677888.6875,0,0,0.0,0.0,2.0
1623677889.15625,0,0,1.7037654349977387,0.0,2.0
1623677889.625,0,0,2.501210213601841,0.0,2.0
1623677890.09375,0,0,3.5359919725708058,0.0,2.0
1623677890.5625,0,0,2.7540504962010925,0.0,2.0
1623677891.03125,0,0,0.06092380066434843,0.0,2.0
1623677891.5,0,0,1.3008511588587763,0.0,2.0
1623677891.96875,0,0,2.8981026522744786,0.0,2.0
1623677892.4375,0,0,6.958967247003936,0.0,2.0
1623677892.90625,0,0,5.743541417087878,0.0,2.0
1623677893.375,0,0,0.0,0.0,2.0
1623677893.84375,0,0,57.20178289374248,0.0,2.0
1623677894.3125,0,0,0.0,0.0,2.0
1623677894.78125,0,0,26.877786632604444,0.0,2.0
1623677895.25,0,0,-89.62804167138123,0.0,2.0
1623677895.71875,0,0,109.07405756933004,0.0,2.0
1623677896.1875,0,0,26.443661672057562,0.0,2.0
1623677896.65625,0,0,55.78061687621664,0.0,2.0
1623677897.125,0,0,0.0,0.0,2.0
1623677897.59375,0,0,0.0,0.0,2.0
1623677898.0625,0,0,65.15993498320606,0.0,2.0
1623677898.53125,0,0,0.0,0.0,2.0
1623677899.0,0,0,41.45905206679062,0.0,2.0
1623677899.46875,0,0,121.65323644371915,0.0,2.0
1623677899.9375,0,0,16.871050688478807,0.0,2.0
1623677900.40625,0,0,0.0,0.0,2.0
1623677900.875,0,0,15.635704297013366,0.0,2.0
1623677901.34375,0,0,26.908956521971806,0.0,2.0
1623677901.8125,0,0,60.63136120974917,0.0,2.0
1623677902.28125,0,0,0.0,0.0,2.0
1623677902.75,0,0,53.82511830740402,0.0,2.0
1623677903.21875,0,0,0.0,0.0,2.0
1623677903.6875,0,0,-10.102858793091542,0.0,2.0
1623677904.15625,0,0,-9.849357527961217,0.0,2.0
1623677904.625,0,0,7.714940756589247,0.0,2.0
1623677905.09375,0,0,9.139154885486182,0.0,2.0
1623677905.5625,0,0,1.1029929575687591,0.0,2.0
1623677906.03125,0,0,0.9295008039926197,0.0,2.0
1623677906.5,0,0,4.30294233158377,0.0,2.0
1623677906.96875,0,0,4.449193769337136,0.0,2.0
1623677907.4375,0,0,3.6163266338930486,0.0,2.0
1623677907.90625,0,0,5.624325569599696,0.0,2.0
1623677908.375,0,0,3.04828262350329,0.0,2.0
1623677908.84375,0,0,5.398118966923903,0.0,2.0
1623677909.3125,0,0,7.450589083643033,0.0,2.0
1623677909.78125,0,0,-0.3424445207102351,0.0,2.0
1623677910.25,0,0,-4.2071985095280064,0.0,2.0
1623677910.71875,0,0,0.0,0.0,2.0
1623677911.1875,0,0,41.28946869236269,0.0,2.0
1623677911.65625,0,0,53.12576633461017,0.0,2.0
1623677912.125,0,0,42.63932884181426,0.0,2.0
1623677912.59375,0,0,3.071151223027519,0.0,2.0
1623677913.0625,0,0,0.0,0.0,2.0
1623677913.53125,0,0,-13.726127737829477,0.0,2.0
1623677914.0,0,0,82.72932843711325,0.0,2.0
1623677914.46875,0,0,123.6469357339374,0.0,2.0
1623677914.9375,0,0,275.499135153041,0.0,2.0
1623677915.40625,0,0,0.0,0.0,2.0
1623677915.875,0,0,93.06437665049016,0.0,2.0
1623677916.34375,0,0,-150.33675447507545,0.0,2.0
1623677916.8125,0,0,389.99044606436246,0.0,3.0
1623677917.28125,0,0,0.0,0.0,3.0
1623677917.75,0,0,0.0,0.0,3.0
1623677918.21875,0,0,242.1049082600114,0.0,3.0
1623677918.6875,0,0,378.5843691890068,0.0,3.0
1623677919.15625,0,0,0.0,0.0,3.0
1623677919.625,0,0,509.60747657599705,0.0,3.0
1623677920.09375,0,0,0.0,0.0,3.0
1623677920.5625,0,0,61.11687758460927,0.0,3.0
1623677921.03125,0,0,-34.71698856635143,0.0,3.0
1623677921.5,0,0,20.77507927239941,0.0,3.0
1623677921.96875,0,0,1.8826211486923503,0.0,3.0
1623677922.4375,0,0,48.43408505766149,0.0,3.0
1623677922.90625,0,0,-20.042021217057957,0.0,3.0
1623677923.375,0,0,-1.2766287391007047,0.0,3.0
1623677923.84375,0,0,8.083102558986145,0.0,3.0
1623677924.3125,0,0,112.2663915835058,0.0,3.0
1623677924.78125,0,0,0.0,0.0,3.0
1623677925.25,0,0,49.79772065628114,0.0,3.0
1623677925.71875,0,0,0.0,0.0,3.0
1623677926.1875,0,0,0.0,0.0,3.0
1623677926.65625,0,0,-4.329123079711895,0.0,3.0
1623677927.125,0,0,11.956503442304557,0.0,3.0
1623677927.59375,0,0,5.802203021848264,0.0,3.0
1623677928.0625,0,0,0.12237865284155322,0.0,3.0
1623677928.53125,0,0,4.9494073483478,0.0,3.0
1623677929.0,0,0,6.537283043508808,0.0,3.0
1623677929.46875,0,0,0.0,0.0,3.0
1623677929.9375,0,0,1.4004729490879995,0.0,3.0
1623677930.40625,0,0,3.442845490065978,0.0,3.0
1623677930.875,0,0,5.205378747018553,0.0,3.0
1623677931.34375,0,0,4.888515145463087,0.0,3.0
1623677931.8125,0,0,2.9797087381274094,0.0,3.0
1623677932.28125,0,0,0.42260379535972803,0.0,3.0
1623677932.75,0,0,5.6160984939492025,0.0,3.0
1623677933.21875,0,0,3.4420059623787047,0.0,3.0
1623677933.6875,0,0,3.0489779359159774,0.0,3.0
1623677934.15625,0,0,4.257395407398546,0.0,3.0
1623677934.625,0,0,1.9725671136543006,0.0,3.0
1623677935.09375,0,0,1.6972039932969587,0.0,3.0
1623677935.5625,0,0,3.645999716583037,0.0,3.0
1623677936.03125,0,0,3.560097199461714,0.0,3.0
1623677936.5,0,0,2.573600029169687,0.0,3.0
1623677936.96875,0,0,4.462850985067663,0.0,3.0
1623677937.4375,0,0,0.0,0.0,3.0
1623677937.90625,0,0,2.3381245732509592,0.0,3.0
1623677938.375,0,0,2.1161802349943444,0.0,3.0
1623677938.84375,0,0,3.6730249030893685,0.0,3.0
1623677939.3125,0,0,2.8353955926070284,0.0,3.0
1623677939.78125,0,0,2.696376866217722,0.0,3.0
1623677940.25,0,0,2.945977456067492,0.0,3.0
1623677940.71875,0,0,1.8109148846899452,0.0,3.0
1623677941.1875,0,0,5.063911249212195,0.0,3.0
1623677941.65625,0,0,0.0,0.0,3.0
1623677942.125,0,0,0.2676153956493394,0.0,3.0
1623677942.59375,0,0,1.009715596051633,0.0,3.0
1623677943.0625,0,0,4.289973149535824,0.0,3.0
1623677943.53125,0,0,2.169746537560374,0.0,3.0
1623677944.0,0,0,3.003655421083594,0.0,3.0
1623677944.46875,0,0,3.6829834764218154,0.0,3.0
1623677944.9375,0,0,2.8500734474308227,0.0,3.0
1623677945.40625,0,0,0.0,0.0,3.0
1623677945.875,0,0,6.241879255166817,0.0,3.0
1623677946.34375,0,0,0.6423830690751188,0.0,3.0
1623677946.8125,0,0,2.178771353615511,0.0,3.0
1623677947.28125,0,0,3.647468251817472,0.0,3.0
1623677947.75,0,0,3.244421075576106,0.0,3.0
1623677948.21875,0,0,1.9637872037685598,0.0,3.0
1623677948.6875,0,0,2.5383849843536095,0.0,3.0
1623677949.15625,0,0,3.3550492351570607,0.0,3.0
1623677949.625,0,0,1.09716868497942,0.0,3.0
1623677950.09375,0,0,2.9298331675196705,0.0,3.0
1623677950.5625,0,0,1.9886349251123432,0.0,3.0
1623677951.03125,0,0,1.2011559268123155,0.0,3.0
1623677951.5,0,0,2.3495546521642665,0.0,3.0
1623677951.96875,0,0,2.7536936307382676,0.0,3.0
1623677952.4375,0,0,2.7615986281205998,0.0,3.0
1623677952.90625,0,0,0.0,0.0,3.0
1623677953.375,0,0,0.0,0.0,3.0
1623677953.84375,0,0,2.9895588567750067,0.0,3.0
1623677954.3125,0,0,2.2865186522485788,0.0,3.0
1623677954.78125,0,0,3.1813071404525477,0.0,3.0
1623677955.25,0,0,1.0863770614572859,0.0,3.0
1623677955.71875,0,0,3.765959291560271,0.0,3.0
1623677956.1875,0,0,0.0,0.0,3.0
1623677956.65625,0,0,1.3588826804150496,0.0,3.0
1623677957.125,0,0,1.5786790182709491,0.0,3.0
1623677957.59375,0,0,2.570596280827642,0.0,3.0
1623677958.0625,0,0,0.0,0.0,3.0
1623677958.53125,0,0,4.599997173131332,0.0,3.0
1623677959.0,0,0,0.8746808928888394,0.0,3.0
1623677959.46875,0,0,1.378907824978392,0.0,3.0
1623677959.9375,0,0,2.7669267805688422,0.0,3.0
1623677960.40625,0,0,3.6477263803258184,0.0,3.0
1623677960.875,0,0,1.229914956253482,0.0,3.0
1623677961.34375,0,0,3.3849401003742354,0.0,3.0
1623677961.8125,0,0,4.8571577856860735,0.0,3.0
1623677962.28125,0,0,2.1924749536056973,0.0,3.0
1623677962.75,0,0,2.6222720874587018,0.0,3.0
1623677963.21875,0,0,2.096136447910156,0.0,3.0
1623677963.6875,0,0,3.6719824599679582,0.0,3.0
1623677964.15625,0,0,3.046680386691852,0.0,3.0
1623677964.625,0,0,1.9279950499062655,0.0,3.0
1623677965.09375,0,0,1.770825156759627,0.0,3.0
1623677965.5625,0,0,1.787188651216224,0.0,3.0
1623677966.03125,0,0,1.6767717403190572,0.0,3.0
1623677966.5,0,0,2.3189884066006745,0.0,3.0
1623677966.96875,0,0,0.5776749902382295,0.0,3.0
1623677967.4375,0,0,4.810070704092489,0.0,3.0
1623677967.90625,0,0,2.766291191685229,0.0,3.0
1623677968.375,0,0,0.0,0.0,3.0
1623677968.84375,0,0,1.5338583953107237,0.0,3.0
1623677969.3125,0,0,2.1811304933492237,0.0,3.0
1623677969.78125,0,0,0.0,0.0,3.0
1623677970.25,0,0,0.0,0.0,3.0
1623677970.71875,0,0,4.217926571890656,0.0,3.0
1623677971.1875,0,0,2.8947586883341154,0.0,3.0
1623677971.65625,0,0,2.272735517028566,0.0,3.0
1623677972.125,0,0,1.7391282322436823,0.0,3.0
1623677972.59375,0,0,0.0,0.0,3.0
1623677973.0625,0,0,2.6385250480177858,0.0,3.0
1623677973.53125,0,0,2.369154721122077,0.0,3.0
1623677974.0,0,0,0.0,0.0,3.0
1623677974.46875,0,0,2.378467363261369,0.0,3.0
1623677974.9375,0,0,1.139159975597239,0.0,3.0
1623677975.40625,0,0,2.047086875574972,0.0,3.0
1623677975.875,0,0,2.4207978757134128,0.0,3.0
1623677976.34375,0,0,0.0,0.0,3.0
1623677976.8125,0,0,2.5131832779556507,0.0,3.0
1623677977.28125,0,0,0.7507444479885764,0.0,3.0
1623677977.75,0,0,0.7272290799916098,0.0,3.0
1623677978.21875,0,0,2.6296227443429134,0.0,3.0
1623677978.6875,0,0,1.2824194613247104,0.0,3.0
1623677979.15625,0,0,2.5717513563609558,0.0,3.0
1623677979.625,0,0,0.0,0.0,3.0
1623677980.09375,0,0,0.7526011189407469,0.0,3.0
1623677980.5625,0,0,2.062314008715266,0.0,3.0
1623677981.03125,0,0,3.3401411367791822,0.0,3.0
1623677981.5,0,0,1.8264780742032567,0.0,3.0
1623677981.96875,0,0,0.0,0.0,3.0
1623677982.4375,0,0,1.7307374965126199,0.0,3.0
1623677982.90625,0,0,2.6528043989132,0.0,3.0
1623677983.375,0,0,2.6294411613013957,0.0,3.0
1623677983.84375,0,0,4.780691499846941,0.0,3.0
1623677984.3125,0,0,0.0,0.0,3.0
1623677984.78125,0,0,2.212406565803024,0.0,3.0
1623677985.25,0,0,1.6985604870428732,0.0,3.0
1623677985.71875,0,0,0.9941955201782884,0.0,3.0
1623677986.1875,0,0,1.6325939768505964,0.0,3.0
1623677986.65625,0,0,1.248899722948358,0.0,3.0
1623677987.125,0,0,2.0498564060294187,0.0,3.0
1623677987.59375,0,0,2.7234895786697786,0.0,3.0
1623677988.0625,0,0,2.1939786106362242,0.0,3.0
1623677988.53125,0,0,2.5995262373353256,0.0,3.0
1623677989.0,0,0,1.845912856235715,0.0,3.0
1623677989.46875,0,0,2.0712835136072996,0.0,3.0
1623677989.9375,0,0,0.0,0.0,3.0
1623677990.40625,0,0,1.020520600856733,0.0,3.0
1623677990.875,0,0,2.5312667954122894,0.0,3.0
1623677991.34375,0,0,1.33708785758286,0.0,3.0
1623677991.8125,0,0,2.247676348628298,0.0,3.0
1623677992.28125,0,0,2.8365212379986837,0.0,3.0
1623677992.75,0,0,2.210472545840009,0.0,3.0
1623677993.21875,0,0,2.903349635832968,0.0,3.0
1623677993.6875,0,0,2.8808051616774333,0.0,3.0
1623677994.15625,0,0,2.2210006813552874,0.0,3.0
1623677994.625,0,0,0.0,0.0,3.0
1623677995.09375,0,0,1.9110271457406836,0.0,3.0
1623677995.5625,0,0,2.5648079591807447,0.0,3.0
1623677996.03125,0,0,3.3346225442930475,0.0,3.0
1623677996.5,0,0,2.834946008817627,0.0,3.0
1623677996.96875,0,0,0.36127541297688176,0.0,3.0
1623677997.4375,0,0,1.215149765854728,0.0,3.0
1623677997.90625,0,0,3.639787429165373,0.0,3.0
1623677998.375,0,0,1.8999992586956307,0.0,3.0
1623677998.84375,0,0,1.6342776772817347,0.0,3.0
1623677999.3125,0,0,2.204727327939851,0.0,3.0
1623677999.78125,0,0,3.243754523359665,0.0,3.0
1623678000.25,0,0,0.9533595489732696,0.0,3.0
1623678000.71875,0,0,1.9165149748291672,0.0,3.0
1623678001.1875,0,0,1.6782106060131263,0.0,3.0
1623678001.65625,0,0,3.0950430927891652,0.0,3.0
1623678002.125,0,0,0.5463225941068768,0.0,3.0
1623678002.59375,0,0,2.511777558126131,0.0,3.0
1623678003.0625,0,0,2.2006734950216815,0.0,3.0
1623678003.53125,0,0,2.7622641253043825,0.0,3.0
1623678004.0,0,0,2.4847680407787904,0.0,3.0
1623678004.46875,0,0,2.961589065792624,0.0,3.0
1623678004.9375,0,0,2.606228808653917,0.0,3.0
1623678005.40625,0,0,1.8840260766930617,0.0,3.0
1623678005.875,0,0,3.2468466937681653,0.0,3.0
1623678006.34375,0,0,2.4069474490020597,0.0,3.0
1623678006.8125,0,0,2.888614562259103,0.0,3.0
1623678007.28125,0,0,0.0,0.0,3.0
1623678007.75,0,0,2.1562883539117386,0.0,3.0
1623678008.21875,0,0,1.4968705689738642,0.0,3.0
1623678008.6875,0,0,3.059112042082543,0.0,3.0
1623678009.15625,0,0,1.8951494206870814,0.0,3.0
1623678009.625,0,0,2.8300687823965576,0.0,3.0
1623678010.09375,0,0,3.657072726051026,0.0,3.0
1623678010.5625,0,0,2.173982395179764,0.0,3.0
1623678011.03125,0,0,3.0646830907236007,0.0,3.0
1623678011.5,0,0,2.8111911071105062,0.0,3.0
1623678011.96875,0,0,0.0,0.0,3.0
1623678012.4375,0,0,2.516194274334462,0.0,3.0
1623678012.90625,0,0,3.0123964508232386,0.0,3.0
1623678013.375,0,0,2.8666601756267913,0.0,3.0
1623678013.84375,0,0,3.1709322359401404,0.0,3.0
1623678014.3125,0,0,2.590416227802522,0.0,3.0
1623678014.78125,0,0,3.180165160034042,0.0,3.0
1623678015.25,0,0,2.068487471558862,0.0,3.0
1623678015.71875,0,0,3.7494221319423824,0.0,3.0
1623678016.1875,0,0,2.851122166598255,0.0,3.0
1623678016.65625,0,0,1.5233201057085008,0.0,3.0
1623678017.125,0,0,3.2993881341759312,0.0,3.0
1623678017.59375,0,0,0.0,0.0,3.0
1623678018.0625,0,0,1.9152146798660732,0.0,3.0
1623678018.53125,0,0,3.5303918617125167,0.0,3.0
1623678019.0,0,0,2.1897218128704363,0.0,3.0
1623678019.46875,0,0,2.961082976383504,0.0,3.0
1623678019.9375,0,0,0.0,0.0,3.0
1623678020.40625,0,0,2.4253295219098643,0.0,3.0
