timestamp,mean_pulse_rate,pulse_rate_std,mean_pulse_amplitude,pulse_amplitude_std,block
1635111356.0,0,0,0.0,0.0,1.0
1635111356.46875,0,0,-6.529930475392686,0.0,1.0
1635111356.9375,0,0,0.0,0.0,1.0
1635111357.40625,0,0,495.7009513967378,0.0,1.0
1635111357.875,0,0,50.745727701097316,0.0,1.0
1635111358.34375,0,0,0.0,0.0,1.0
1635111358.8125,0,0,89.68318119802183,0.0,1.0
1635111359.28125,0,0,27.70097404662219,0.0,1.0
1635111359.75,0,0,0.0,0.0,1.0
1635111360.21875,0,0,23.099547791666797,0.0,1.0
1635111360.6875,0,0,28.529901496450243,0.0,1.0
1635111361.15625,0,0,17.310028602839516,0.0,1.0
1635111361.625,0,0,0.0,0.0,1.0
1635111362.09375,0,0,23.632163532359776,0.0,1.0
1635111362.5625,0,0,29.323537255481174,0.0,1.0
1635111363.03125,0,0,0.0,0.0,1.0
1635111363.5,0,0,41.712690378696585,0.0,1.0
1635111363.96875,0,0,0.0,0.0,1.0
1635111364.4375,0,0,38.00458808724411,0.0,1.0
1635111364.90625,0,0,0.0,0.0,1.0
1635111365.375,0,0,17.49316254308064,0.0,1.0
1635111365.84375,0,0,22.100303344168506,0.0,1.0
1635111366.3125,0,0,0.0,0.0,1.0
1635111366.78125,0,0,0.0,0.0,1.0
1635111367.25,0,0,15.677152502127157,0.0,1.0
1635111367.71875,0,0,14.3687485355109,0.0,1.0
1635111368.1875,0,0,0.0,0.0,1.0
1635111368.65625,0,0,14.31950577342818,0.0,1.0
1635111369.125,0,0,0.0,0.0,1.0
1635111369.59375,0,0,15.88968417502959,0.0,1.0
1635111370.0625,0,0,0.0,0.0,1.0
1635111370.53125,0,0,24.576699176112033,0.0,1.0
1635111371.0,0,0,59.15198133928752,0.0,1.0
1635111371.46875,0,0,0.0,0.0,1.0
1635111371.9375,0,0,119.84533798570246,0.0,1.0
1635111372.40625,0,0,0.0,0.0,1.0
1635111372.875,0,0,19.087442571568015,0.0,1.0
1635111373.34375,0,0,15.755261234860823,0.0,1.0
1635111373.8125,0,0,0.0,0.0,1.0
1635111374.28125,0,0,20.81646041212815,0.0,1.0
1635111374.75,0,0,0.0,0.0,1.0
1635111375.21875,0,0,9.691665753521086,0.0,1.0
1635111375.6875,0,0,21.803240534230152,0.0,1.0
1635111376.15625,0,0,0.0,0.0,1.0
1635111376.625,0,0,27.54552596923952,0.0,1.0
1635111377.09375,0,0,0.0,0.0,1.0
1635111377.5625,0,0,8.944309915259282,0.0,1.0
1635111378.03125,0,0,0.0,0.0,1.0
1635111378.5,0,0,22.270215008580887,0.0,1.0
1635111378.96875,0,0,0.0,0.0,1.0
1635111379.4375,0,0,9.260857641153157,0.0,1.0
1635111379.90625,0,0,0.0,0.0,1.0
1635111380.375,0,0,7.716324125457639,0.0,1.0
1635111380.84375,0,0,22.836742153035196,0.0,1.0
1635111381.3125,0,0,15.487162444268407,0.0,1.0
1635111381.78125,0,0,18.571287155196146,0.0,1.0
1635111382.25,0,0,0.0,0.0,1.0
1635111382.71875,0,0,15.133830435046336,0.0,1.0
1635111383.1875,0,0,0.0,0.0,1.0
1635111383.65625,0,0,18.200011649908927,0.0,1.0
1635111384.125,0,0,0.0,0.0,1.0
1635111384.59375,0,0,18.37061261299416,0.0,1.0
1635111385.0625,0,0,16.40607995902985,0.0,1.0
1635111385.53125,0,0,0.0,0.0,1.0
1635111386.0,0,0,14.890548292009553,0.0,1.0
1635111386.46875,0,0,0.0,0.0,1.0
1635111386.9375,0,0,20.031707374017675,0.0,1.0
1635111387.40625,0,0,0.0,0.0,1.0
1635111387.875,0,0,17.083225650760888,0.0,1.0
1635111388.34375,0,0,0.0,0.0,1.0
1635111388.8125,0,0,0.0,0.0,1.0
1635111389.28125,0,0,15.810483516316735,0.0,1.0
1635111389.75,0,0,0.0,0.0,1.0
1635111390.21875,0,0,15.339175833446658,0.0,1.0
1635111390.6875,0,0,0.0,0.0,1.0
1635111391.15625,0,0,17.783290803864602,0.0,1.0
1635111391.625,0,0,19.710098410669683,0.0,1.0
1635111392.09375,0,0,0.0,0.0,1.0
1635111392.5625,0,0,95.92141633697223,0.0,1.0
1635111393.03125,0,0,0.0,0.0,1.0
1635111393.5,0,0,18.30904480714793,0.0,1.0
1635111393.96875,0,0,-29.292554625802723,0.0,1.0
1635111394.4375,0,0,81.50548398263835,0.0,1.0
1635111394.90625,0,0,0.0,0.0,1.0
1635111395.375,0,0,11.943906703288985,0.0,1.0
1635111395.84375,0,0,0.0,0.0,1.0
1635111396.3125,0,0,0.0,0.0,1.0
1635111396.78125,0,0,15.911998861089819,0.0,1.0
1635111397.25,0,0,0.0,0.0,1.0
1635111397.71875,0,0,19.82586406697201,0.0,1.0
1635111398.1875,0,0,0.0,0.0,1.0
1635111398.65625,0,0,17.874495759081803,0.0,1.0
1635111399.125,0,0,0.0,0.0,1.0
1635111399.59375,0,0,18.068028289968098,0.0,1.0
1635111400.0625,0,0,17.50801688281833,0.0,1.0
1635111400.53125,0,0,0.0,0.0,1.0
1635111401.0,0,0,17.774743931933703,0.0,1.0
1635111401.46875,0,0,0.0,0.0,1.0
1635111401.9375,0,0,16.71128570682191,0.0,1.0
1635111402.40625,0,0,16.702482413534977,0.0,1.0
1635111402.875,0,0,0.0,0.0,1.0
1635111403.34375,0,0,14.565241090467218,0.0,1.0
1635111403.8125,0,0,0.0,0.0,1.0
1635111404.28125,0,0,17.145380881314424,0.0,1.0
1635111404.75,0,0,0.0,0.0,1.0
1635111405.21875,0,0,20.093811157758555,0.0,1.0
1635111405.6875,0,0,22.273956581737995,0.0,1.0
1635111406.15625,0,0,0.0,0.0,1.0
1635111406.625,0,0,15.290891449368303,0.0,1.0
1635111407.09375,0,0,0.0,0.0,1.0
1635111407.5625,0,0,17.386067514584763,0.0,1.0
1635111408.03125,0,0,0.0,0.0,1.0
1635111408.5,0,0,21.893935411323586,0.0,1.0
1635111408.96875,0,0,23.59854084285898,0.0,1.0
1635111409.4375,0,0,0.0,0.0,1.0
1635111409.90625,0,0,16.464026143639796,0.0,1.0
1635111410.375,0,0,0.0,0.0,1.0
1635111410.84375,0,0,16.81382095353458,0.0,1.0
1635111411.3125,0,0,19.66220436369535,0.0,1.0
1635111411.78125,0,0,0.0,0.0,1.0
1635111412.25,0,0,17.507118515458775,0.0,1.0
1635111412.71875,0,0,0.0,0.0,1.0
1635111413.1875,0,0,20.927157339350394,0.0,1.0
1635111413.65625,0,0,-1.9385117234992533,0.0,1.0
1635111414.125,0,0,0.0,0.0,1.0
1635111414.59375,0,0,122.80039976737845,0.0,1.0
1635111415.0625,0,0,-38.37956851999877,0.0,1.0
1635111415.53125,0,0,30.638156614747192,0.0,1.0
1635111416.0,0,0,0.0,0.0,1.0
1635111416.46875,0,0,13.579519782576009,0.0,1.0
1635111416.9375,0,0,17.43840555129644,0.0,1.0
1635111417.40625,0,0,0.0,0.0,1.0
1635111417.875,0,0,19.457180889442103,0.0,1.0
1635111418.34375,0,0,0.0,0.0,1.0
1635111418.8125,0,0,21.80774139185984,0.0,1.0
1635111419.28125,0,0,0.0,0.0,1.0
1635111419.75,0,0,18.38375662692747,0.0,1.0
1635111420.21875,0,0,21.298890725438515,0.0,1.0
1635111420.6875,0,0,0.0,0.0,1.0
1635111421.15625,0,0,20.180398973789668,0.0,1.0
1635111421.625,0,0,0.0,0.0,1.0
1635111422.09375,0,0,20.61723318311102,0.0,1.0
1635111422.5625,0,0,10.582453741867305,0.0,1.0
1635111423.03125,0,0,12.557057466711253,0.0,1.0
1635111423.5,0,0,17.231709268782094,0.0,1.0
1635111423.96875,0,0,0.0,0.0,1.0
1635111424.4375,0,0,27.20540742362583,0.0,1.0
1635111424.90625,0,0,21.084100809286817,0.0,1.0
1635111425.375,0,0,0.0,0.0,1.0
1635111425.84375,0,0,21.78126188979701,0.0,1.0
1635111426.3125,0,0,0.0,0.0,1.0
1635111426.78125,0,0,19.794574947020482,0.0,1.0
1635111427.25,0,0,0.0,0.0,1.0
1635111427.71875,0,0,18.955526273215177,0.0,1.0
1635111428.1875,0,0,20.59853449598425,0.0,1.0
1635111428.65625,0,0,0.0,0.0,1.0
1635111429.125,0,0,18.260861298115692,0.0,1.0
1635111429.59375,0,0,19.404871127980872,0.0,1.0
1635111430.0625,0,0,0.0,0.0,1.0
1635111430.53125,0,0,19.505431967504236,0.0,1.0
1635111431.0,0,0,22.636066608916067,0.0,1.0
1635111431.46875,0,0,0.0,0.0,1.0
1635111431.9375,0,0,19.450759396811954,0.0,1.0
1635111432.40625,0,0,0.0,0.0,1.0
1635111432.875,0,0,0.0,0.0,1.0
1635111433.34375,0,0,24.429108512437416,0.0,1.0
1635111433.8125,0,0,16.47701145404547,0.0,1.0
1635111434.28125,0,0,0.0,0.0,1.0
1635111434.75,0,0,18.62851858227313,0.0,1.0
1635111435.21875,0,0,14.94739662221029,0.0,1.0
1635111435.6875,0,0,0.0,0.0,1.0
1635111436.15625,0,0,20.873108316461725,0.0,1.0
1635111436.625,0,0,5.959407078123268,0.0,1.0
1635111437.09375,0,0,7.778794621948018,0.0,1.0
1635111437.5625,0,0,15.521000344582296,0.0,1.0
1635111438.03125,0,0,0.0,0.0,1.0
1635111438.5,0,0,15.983425352333473,0.0,1.0
1635111438.96875,0,0,11.456647209512024,0.0,1.0
1635111439.4375,0,0,0.0,0.0,1.0
1635111439.90625,0,0,9.79879271974903,0.0,1.0
1635111440.375,0,0,11.972257248769628,0.0,1.0
1635111440.84375,0,0,0.0,0.0,1.0
1635111441.3125,0,0,11.115736779952769,0.0,1.0
1635111441.78125,0,0,13.49260155035728,0.0,1.0
1635111442.25,0,0,0.0,0.0,1.0
1635111442.71875,0,0,13.562312951658095,0.0,1.0
1635111443.1875,0,0,12.945517518752606,0.0,1.0
1635111443.65625,0,0,0.0,0.0,1.0
1635111444.125,0,0,16.18839909369483,0.0,1.0
1635111444.59375,0,0,0.0,0.0,1.0
1635111445.0625,0,0,0.0,0.0,1.0
1635111445.53125,0,0,19.73248405246197,0.0,1.0
1635111446.0,0,0,0.0,0.0,1.0
1635111446.46875,0,0,18.876766190440005,0.0,1.0
1635111446.9375,0,0,0.0,0.0,1.0
1635111447.40625,0,0,18.473152845645753,0.0,1.0
1635111447.875,0,0,14.339919849013043,0.0,1.0
1635111448.34375,0,0,0.0,0.0,1.0
1635111448.8125,0,0,16.45202145931578,0.0,1.0
1635111449.28125,0,0,15.288581109856294,0.0,1.0
1635111449.75,0,0,0.0,0.0,1.0
1635111450.21875,0,0,19.39982060197141,0.0,1.0
1635111450.6875,0,0,16.87568642264003,0.0,1.0
1635111451.15625,0,0,0.0,0.0,1.0
1635111451.625,0,0,16.95129519783418,0.0,1.0
1635111452.09375,0,0,0.0,0.0,1.0
1635111452.5625,0,0,18.971152586379308,0.0,1.0
1635111453.03125,0,0,14.85904941826618,0.0,1.0
1635111453.5,0,0,0.0,0.0,1.0
1635111453.96875,0,0,16.58251299177304,0.0,1.0
1635111454.4375,0,0,0.0,0.0,1.0
1635111454.90625,0,0,0.0,0.0,1.0
1635111455.375,0,0,-2.129491655975494,0.0,1.0
1635111455.84375,0,0,79.60012955276115,0.0,1.0
1635111456.3125,0,0,0.0,0.0,1.0
1635111456.78125,0,0,0.0,0.0,1.0
1635111457.25,0,0,23.74165853877637,0.0,1.0
1635111457.71875,0,0,10.702134113545666,0.0,1.0
1635111458.1875,0,0,0.0,0.0,1.0
1635111458.65625,0,0,14.344364148678507,0.0,1.0
1635111459.125,0,0,0.0,0.0,1.0
1635111459.59375,0,0,15.00215973468444,0.0,1.0
1635111460.0625,0,0,14.364919018351364,0.0,1.0
1635111460.53125,0,0,0.0,0.0,1.0
1635111461.0,0,0,18.856424472814073,0.0,1.0
1635111461.46875,0,0,0.0,0.0,1.0
1635111461.9375,0,0,12.434851277663013,0.0,1.0
1635111462.40625,0,0,0.0,0.0,1.0
1635111462.875,0,0,0.0,0.0,1.0
1635111463.34375,0,0,7.23281661101929,0.0,1.0
1635111463.8125,0,0,0.0,0.0,1.0
1635111464.28125,0,0,160.3112188989041,0.0,1.0
1635111464.75,0,0,-43.16417423634527,0.0,1.0
1635111465.21875,0,0,24.887033545827084,0.0,1.0
1635111465.6875,0,0,0.0,0.0,1.0
1635111466.15625,0,0,13.02014297557505,0.0,1.0
1635111466.625,0,0,14.349981405997118,0.0,1.0
1635111467.09375,0,0,0.0,0.0,1.0
1635111467.5625,0,0,14.747396903188998,0.0,1.0
1635111468.03125,0,0,0.0,0.0,1.0
1635111468.5,0,0,18.98787701267771,0.0,1.0
1635111468.96875,0,0,19.016597773285,0.0,1.0
1635111469.4375,0,0,0.0,0.0,1.0
1635111469.90625,0,0,122.53606723044155,0.0,1.0
1635111470.375,0,0,0.0,0.0,1.0
1635111470.84375,0,0,17.92127795917006,0.0,1.0
1635111471.3125,0,0,0.0,0.0,1.0
1635111471.78125,0,0,19.368382189023308,0.0,1.0
1635111472.25,0,0,0.0,0.0,1.0
1635111472.71875,0,0,22.66852324084113,0.0,1.0
1635111473.1875,0,0,7.411874123267155,0.0,1.0
1635111473.65625,0,0,0.0,0.0,1.0
1635111474.125,0,0,35.85982172462619,0.0,1.0
1635111474.59375,0,0,0.0,0.0,1.0
1635111475.0625,0,0,20.16672626831842,0.0,1.0
1635111475.53125,0,0,11.679431417116037,0.0,1.0
1635111476.0,0,0,0.0,0.0,1.0
1635111476.46875,0,0,17.080611367645496,0.0,1.0
1635111476.9375,0,0,0.0,0.0,1.0
1635111477.40625,0,0,23.069213896708284,0.0,1.0
1635111477.875,0,0,0.0,0.0,1.0
1635111478.34375,0,0,17.548186658245765,0.0,1.0
1635111478.8125,0,0,18.241361737624885,0.0,1.0
1635111479.28125,0,0,0.0,0.0,1.0
1635111479.75,0,0,15.49724062121928,0.0,1.0
1635111480.21875,0,0,20.69684849161421,0.0,1.0
1635111480.6875,0,0,5.3548233529062905,0.0,1.0
1635111481.15625,0,0,0.0,0.0,1.0
1635111481.625,0,0,23.661067562317534,0.0,1.0
1635111482.09375,0,0,15.871239600282253,0.0,1.0
1635111482.5625,0,0,0.0,0.0,1.0
1635111483.03125,0,0,19.463636528736647,0.0,1.0
1635111483.5,0,0,0.0,0.0,1.0
1635111483.96875,0,0,19.29420778835937,0.0,1.0
1635111484.4375,0,0,10.618877842643156,0.0,1.0
1635111484.90625,0,0,22.73199726637057,0.0,1.0
1635111485.375,0,0,6.160272042487005,0.0,1.0
1635111485.84375,0,0,67.72738865905383,0.0,1.0
1635111486.3125,0,0,-14.890059361910007,0.0,1.0
1635111486.78125,0,0,0.0,0.0,1.0
1635111487.25,0,0,29.856882550477504,0.0,1.0
1635111487.71875,0,0,0.0,0.0,1.0
1635111488.1875,0,0,23.980619587260136,0.0,1.0
1635111488.65625,0,0,25.475292010205532,0.0,1.0
1635111489.125,0,0,0.0,0.0,1.0
1635111489.59375,0,0,25.96822906610256,0.0,1.0
1635111490.0625,0,0,0.0,0.0,1.0
1635111490.53125,0,0,39.1785060772988,0.0,1.0
1635111491.0,0,0,15.280497739119442,0.0,1.0
1635111491.46875,0,0,16.483832114518872,0.0,1.0
1635111491.9375,0,0,20.44844950279922,0.0,1.0
1635111492.40625,0,0,0.0,0.0,1.0
1635111492.875,0,0,16.505766855142,0.0,1.0
1635111493.34375,0,0,21.12717414369222,0.0,1.0
1635111493.8125,0,0,0.0,0.0,1.0
1635111494.28125,0,0,24.092894791580804,0.0,1.0
1635111494.75,0,0,0.0,0.0,1.0
1635111495.21875,0,0,15.65620416008709,0.0,1.0
1635111495.6875,0,0,49.13802570065983,0.0,1.0
1635111496.15625,0,0,0.0,0.0,1.0
1635111496.625,0,0,24.531110582534545,0.0,1.0
1635111497.09375,0,0,10.242514431821666,0.0,1.0
1635111497.5625,0,0,31.925774082047088,0.0,1.0
1635111498.03125,0,0,6.230074730738159,0.0,1.0
1635111498.5,0,0,0.0,0.0,1.0
1635111498.96875,0,0,17.399537376573328,0.0,1.0
1635111499.4375,0,0,0.0,0.0,1.0
1635111499.90625,0,0,11.40594322608324,0.0,1.0
1635111500.375,0,0,20.636575055392782,0.0,1.0
1635111500.84375,0,0,0.0,0.0,1.0
1635111501.3125,0,0,19.09466700366073,0.0,1.0
1635111501.78125,0,0,0.0,0.0,1.0
1635111502.25,0,0,18.299476214296554,0.0,1.0
1635111502.71875,0,0,12.439914219709621,0.0,1.0
1635111503.1875,0,0,11.345812088423175,0.0,1.0
1635111503.65625,0,0,15.385814284550268,0.0,1.0
1635111504.125,0,0,0.0,0.0,1.0
1635111504.59375,0,0,18.397171908636935,0.0,1.0
1635111505.0625,0,0,0.0,0.0,1.0
1635111505.53125,0,0,0.0,0.0,1.0
1635111506.0,0,0,17.583133399620404,0.0,1.0
1635111506.46875,0,0,0.0,0.0,1.0
1635111506.9375,0,0,21.836931913171426,0.0,1.0
1635111507.40625,0,0,0.0,0.0,1.0
1635111507.875,0,0,17.478420548446095,0.0,1.0
1635111508.34375,0,0,18.012110521044967,0.0,1.0
1635111508.8125,0,0,17.91136774573292,0.0,1.0
1635111509.28125,0,0,15.934881441033196,0.0,1.0
1635111509.75,0,0,0.0,0.0,1.0
1635111510.21875,0,0,15.591405468546634,0.0,1.0
1635111510.6875,0,0,16.52271628487423,0.0,1.0
1635111511.15625,0,0,0.0,0.0,1.0
1635111511.625,0,0,16.783253274352823,0.0,1.0
1635111512.09375,0,0,0.0,0.0,1.0
1635111512.5625,0,0,15.918205140035594,0.0,1.0
1635111513.03125,0,0,0.0,0.0,1.0
1635111513.5,0,0,16.85317934155562,0.0,1.0
1635111513.96875,0,0,20.771159831207054,0.0,1.0
1635111514.4375,0,0,0.0,0.0,1.0
1635111514.90625,0,0,-29.847250109326872,0.0,1.0
1635111515.375,0,0,141.0434341916073,0.0,1.0
1635111515.84375,0,0,12.11591700719072,0.0,1.0
1635111516.3125,0,0,0.0,0.0,1.0
1635111516.78125,0,0,19.81233466875782,0.0,1.0
1635111517.25,0,0,0.0,0.0,1.0
1635111517.71875,0,0,0.0,0.0,1.0
1635111518.1875,0,0,23.046136117906894,0.0,1.0
1635111518.65625,0,0,0.0,0.0,1.0
1635111519.125,0,0,7.981875441067263,0.0,1.0
1635111519.59375,0,0,48.27186201771142,0.0,1.0
1635111520.0625,0,0,0.0,0.0,1.0
1635111520.53125,0,0,0.0,0.0,1.0
1635111521.0,0,0,24.42095950792418,0.0,1.0
1635111521.46875,0,0,17.35954892033532,0.0,1.0
1635111521.9375,0,0,0.0,0.0,1.0
1635111522.40625,0,0,22.746536656906077,0.0,1.0
1635111522.875,0,0,0.0,0.0,1.0
1635111523.34375,0,0,5.781507316644927,0.0,1.0
1635111523.8125,0,0,28.349566553474236,0.0,1.0
1635111524.28125,0,0,17.743298252847964,0.0,1.0
1635111524.75,0,0,0.0,0.0,1.0
1635111525.21875,0,0,19.061908735902037,0.0,1.0
1635111525.6875,0,0,19.931805972225707,0.0,1.0
1635111526.15625,0,0,0.0,0.0,1.0
1635111526.625,0,0,10.908972279279254,0.0,1.0
1635111527.09375,0,0,9.148823155537547,0.0,1.0
1635111527.5625,0,0,11.141925036420371,0.0,1.0
1635111528.03125,0,0,0.0,0.0,1.0
1635111528.5,0,0,20.206063949305943,0.0,1.0
1635111528.96875,0,0,0.0,0.0,1.0
1635111529.4375,0,0,13.927247467399122,0.0,1.0
1635111529.90625,0,0,18.417798830267724,0.0,1.0
1635111530.375,0,0,0.0,0.0,1.0
1635111530.84375,0,0,0.0,0.0,1.0
1635111531.3125,0,0,0.0,0.0,1.0
1635111531.78125,0,0,15.397050794628218,0.0,1.0
1635111532.25,0,0,0.0,0.0,1.0
1635111532.71875,0,0,18.14521004113725,0.0,1.0
1635111533.1875,0,0,0.0,0.0,1.0
1635111533.65625,0,0,21.412993695112455,0.0,1.0
1635111534.125,0,0,0.0,0.0,1.0
1635111534.59375,0,0,18.953430876746626,0.0,1.0
1635111535.0625,0,0,0.0,0.0,1.0
1635111535.53125,0,0,19.289996707151555,0.0,1.0
1635111536.0,0,0,0.0,0.0,1.0
1635111536.46875,0,0,18.366433506594692,0.0,1.0
1635111536.9375,0,0,0.0,0.0,1.0
1635111537.40625,0,0,-7.181090260007834,0.0,1.0
1635111537.875,0,0,18.740995924280313,0.0,1.0
1635111538.34375,0,0,0.0,0.0,1.0
1635111538.8125,0,0,21.064156035915467,0.0,1.0
1635111539.28125,0,0,0.0,0.0,1.0
1635111539.75,0,0,56.518549585547646,0.0,1.0
1635111540.21875,0,0,0.0,0.0,1.0
1635111540.6875,0,0,31.09581735394104,0.0,1.0
1635111541.15625,0,0,26.171970596622412,0.0,1.0
1635111541.625,0,0,27.17694277082446,0.0,1.0
1635111542.09375,0,0,33.3419345288062,0.0,1.0
1635111542.5625,0,0,0.0,0.0,1.0
1635111543.03125,0,0,-7.422979648214613,0.0,1.0
1635111543.5,0,0,49.090247473790996,0.0,1.0
1635111543.96875,0,0,1.9759677759103125,0.0,1.0
1635111544.4375,0,0,0.0,0.0,1.0
1635111544.90625,0,0,40.04641791297902,0.0,1.0
1635111545.375,0,0,0.0,0.0,1.0
1635111545.84375,0,0,64.35714682169827,0.0,1.0
1635111546.3125,0,0,0.0,0.0,1.0
1635111546.78125,0,0,7.130902280361138,0.0,1.0
1635111547.25,0,0,0.0,0.0,1.0
1635111547.71875,0,0,0.0,0.0,1.0
1635111548.1875,0,0,19.179034913187945,0.0,1.0
1635111548.65625,0,0,0.0,0.0,1.0
1635111549.125,0,0,0.0,0.0,1.0
1635111549.59375,0,0,26.126096096737353,0.0,1.0
1635111550.0625,0,0,11.495851597370034,0.0,1.0
1635111550.53125,0,0,0.0,0.0,1.0
1635111551.0,0,0,26.901773861890984,0.0,1.0
1635111551.46875,0,0,0.0,0.0,1.0
1635111551.9375,0,0,28.71468825035643,0.0,1.0
1635111552.40625,0,0,0.0,0.0,1.0
1635111552.875,0,0,17.441504293341186,0.0,1.0
1635111553.34375,0,0,0.0,0.0,1.0
1635111553.8125,0,0,0.0,0.0,1.0
1635111554.28125,0,0,15.439095798639041,0.0,1.0
1635111554.75,0,0,0.0,0.0,1.0
1635111555.21875,0,0,0.0,0.0,1.0
1635111555.6875,0,0,20.846659452961138,0.0,1.0
1635111556.15625,0,0,0.0,0.0,1.0
1635111556.625,0,0,0.0,0.0,1.0
1635111557.09375,0,0,31.516425961748986,0.0,1.0
1635111557.5625,0,0,0.0,0.0,1.0
1635111558.03125,0,0,18.202542958068083,0.0,1.0
1635111558.5,0,0,0.0,0.0,1.0
1635111558.96875,0,0,23.832726792902566,0.0,1.0
1635111559.4375,0,0,0.0,0.0,1.0
1635111559.90625,0,0,0.0,0.0,1.0
1635111560.375,0,0,14.108288168284993,0.0,1.0
1635111560.84375,0,0,15.481227158723122,0.0,1.0
1635111561.3125,0,0,4.507421385442508,0.0,1.0
1635111561.78125,0,0,7.811169768245267,0.0,1.0
1635111562.25,0,0,11.945045353138472,0.0,1.0
1635111562.71875,0,0,26.61713976104104,0.0,1.0
1635111563.1875,0,0,0.0,0.0,1.0
1635111563.65625,0,0,27.53861437468135,0.0,1.0
1635111564.125,0,0,0.0,0.0,1.0
1635111564.59375,0,0,0.0,0.0,1.0
1635111565.0625,0,0,0.0,0.0,1.0
1635111565.53125,0,0,16.774413062010744,0.0,1.0
1635111566.0,0,0,0.0,0.0,1.0
1635111566.46875,0,0,15.768291850582749,0.0,1.0
1635111566.9375,0,0,0.0,0.0,1.0
1635111567.40625,0,0,13.61692831925705,0.0,1.0
1635111567.875,0,0,9.412159883596033,0.0,1.0
1635111568.34375,0,0,0.0,0.0,1.0
1635111568.8125,0,0,10.198112140263365,0.0,1.0
1635111569.28125,0,0,0.0,0.0,1.0
1635111569.75,0,0,10.742256950980533,0.0,1.0
1635111570.21875,0,0,0.0,0.0,1.0
1635111570.6875,0,0,15.635298134178704,0.0,1.0
1635111571.15625,0,0,0.0,0.0,1.0
1635111571.625,0,0,19.400272647556577,0.0,1.0
1635111572.09375,0,0,0.0,0.0,1.0
1635111572.5625,0,0,0.0,0.0,1.0
1635111573.03125,0,0,0.0,0.0,1.0
1635111573.5,0,0,22.742585296771153,0.0,1.0
1635111573.96875,0,0,0.0,0.0,1.0
1635111574.4375,0,0,21.13221217816141,0.0,1.0
1635111574.90625,0,0,15.265793838881054,0.0,1.0
1635111575.375,0,0,0.0,0.0,1.0
1635111575.84375,0,0,0.0,0.0,1.0
1635111576.3125,0,0,16.69777633581932,0.0,1.0
1635111576.78125,0,0,16.612910877863584,0.0,1.0
1635111577.25,0,0,16.55448056996619,0.0,1.0
1635111577.71875,0,0,0.0,0.0,1.0
1635111578.1875,0,0,17.3266116700198,0.0,1.0
1635111578.65625,0,0,0.0,0.0,1.0
1635111579.125,0,0,18.483597777479115,0.0,1.0
1635111579.59375,0,0,25.406906914961663,0.0,1.0
1635111580.0625,0,0,0.0,0.0,1.0
1635111580.53125,0,0,158.01385158876138,0.0,1.0
1635111581.0,0,0,0.0,0.0,1.0
1635111581.46875,0,0,9.522257227021981,0.0,1.0
1635111581.9375,0,0,0.0,0.0,1.0
1635111582.40625,0,0,17.23757011454495,0.0,1.0
1635111582.875,0,0,0.0,0.0,1.0
1635111583.34375,0,0,17.317509665499493,0.0,1.0
1635111583.8125,0,0,0.0,0.0,1.0
1635111584.28125,0,0,0.0,0.0,1.0
1635111584.75,0,0,104.66531545046713,0.0,1.0
1635111585.21875,0,0,-31.096775629206856,0.0,1.0
1635111585.6875,0,0,28.139287699106948,0.0,1.0
1635111586.15625,0,0,0.0,0.0,1.0
1635111586.625,0,0,25.51708387049571,0.0,1.0
1635111587.09375,0,0,0.0,0.0,1.0
1635111587.5625,0,0,19.281817948963187,0.0,1.0
1635111588.03125,0,0,0.0,0.0,1.0
1635111588.5,0,0,95.33868867919138,0.0,1.0
1635111588.96875,0,0,0.0,0.0,1.0
1635111589.4375,0,0,4.133008871223655,0.0,1.0
1635111589.90625,0,0,0.0,0.0,1.0
1635111590.375,0,0,0.0,0.0,1.0
1635111590.84375,0,0,15.905964326672713,0.0,1.0
1635111591.3125,0,0,0.0,0.0,1.0
1635111591.78125,0,0,0.0,0.0,1.0
1635111592.25,0,0,22.016006339008765,0.0,1.0
1635111592.71875,0,0,21.6349997072516,0.0,1.0
1635111593.1875,0,0,0.0,0.0,1.0
1635111593.65625,0,0,18.328443596090267,0.0,1.0
1635111594.125,0,0,0.0,0.0,1.0
1635111594.59375,0,0,20.202628115465224,0.0,1.0
1635111595.0625,0,0,0.0,0.0,1.0
1635111595.53125,0,0,18.358958909044915,0.0,1.0
1635111596.0,0,0,0.0,0.0,1.0
1635111596.46875,0,0,19.87765021471782,0.0,1.0
1635111596.9375,0,0,0.0,0.0,1.0
1635111597.40625,0,0,21.141802693888863,0.0,1.0
1635111597.875,0,0,7.242052015970325,0.0,1.0
1635111598.34375,0,0,0.0,0.0,1.0
1635111598.8125,0,0,77.73163620458897,0.0,1.0
1635111599.28125,0,0,-9.702014473656341,0.0,1.0
1635111599.75,0,0,25.361726334138837,0.0,1.0
1635111600.21875,0,0,0.0,0.0,1.0
1635111600.6875,0,0,25.31659584310447,0.0,1.0
1635111601.15625,0,0,0.0,0.0,1.0
1635111601.625,0,0,22.61255592000282,0.0,1.0
1635111602.09375,0,0,0.0,0.0,1.0
1635111602.5625,0,0,122.71228578395575,0.0,1.0
1635111603.03125,0,0,0.0,0.0,1.0
1635111603.5,0,0,18.387974602650292,0.0,1.0
1635111603.96875,0,0,0.0,0.0,1.0
1635111604.4375,0,0,24.516760418541907,0.0,1.0
1635111604.90625,0,0,0.0,0.0,1.0
1635111605.375,0,0,15.683321166701575,0.0,1.0
1635111605.84375,0,0,19.917143487534844,0.0,1.0
1635111606.3125,0,0,0.0,0.0,1.0
1635111606.78125,0,0,23.935261769371305,0.0,1.0
1635111607.25,0,0,0.0,0.0,1.0
1635111607.71875,0,0,25.58694640888746,0.0,1.0
1635111608.1875,0,0,0.0,0.0,1.0
1635111608.65625,0,0,20.714687654456878,0.0,1.0
1635111609.125,0,0,23.692982807001407,0.0,1.0
1635111609.59375,0,0,0.0,0.0,1.0
1635111610.0625,0,0,75.49905413965003,0.0,1.0
1635111610.53125,0,0,40.57978765077885,0.0,1.0
1635111611.0,0,0,31.14359004227799,0.0,1.0
1635111611.46875,0,0,34.561651202507655,0.0,1.0
1635111611.9375,0,0,17.736429033151406,0.0,1.0
1635111612.40625,0,0,21.098210529742698,0.0,1.0
1635111612.875,0,0,4.27456259116446,0.0,1.0
1635111613.34375,0,0,37.457478519164255,0.0,1.0
1635111613.8125,0,0,19.802399277566852,0.0,1.0
1635111614.28125,0,0,18.87315147686154,0.0,1.0
1635111614.75,0,0,23.077039438800437,0.0,1.0
1635111615.21875,0,0,70.07684203533373,0.0,1.0
1635111615.6875,0,0,0.0,0.0,1.0
1635111616.15625,0,0,29.198245167104275,0.0,1.0
1635111616.625,0,0,17.90697162080009,0.0,1.0
1635111617.09375,0,0,0.0,0.0,1.0
1635111617.5625,0,0,21.91769121249475,0.0,1.0
1635111618.03125,0,0,0.0,0.0,1.0
1635111618.5,0,0,22.386368142374845,0.0,1.0
1635111618.96875,0,0,0.0,0.0,1.0
1635111619.4375,0,0,25.282707353080923,0.0,1.0
1635111619.90625,0,0,0.0,0.0,1.0
1635111620.375,0,0,0.0,0.0,1.0
1635111620.84375,0,0,24.738253857567464,0.0,1.0
1635111621.3125,0,0,0.0,0.0,1.0
1635111621.78125,0,0,24.19501558097284,0.0,1.0
1635111622.25,0,0,16.91363895719215,0.0,1.0
1635111622.71875,0,0,0.0,0.0,1.0
1635111623.1875,0,0,21.994209255440612,0.0,1.0
1635111623.65625,0,0,0.0,0.0,1.0
1635111624.125,0,0,26.914998218057157,0.0,1.0
1635111624.59375,0,0,18.438005539975077,0.0,1.0
1635111625.0625,0,0,0.0,0.0,1.0
1635111625.53125,0,0,21.54895222270413,0.0,1.0
1635111626.0,0,0,16.399912056464917,0.0,1.0
1635111626.46875,0,0,0.0,0.0,1.0
1635111626.9375,0,0,22.620886086598208,0.0,1.0
1635111627.40625,0,0,0.0,0.0,1.0
1635111627.875,0,0,21.194183558147017,0.0,1.0
1635111628.34375,0,0,0.0,0.0,1.0
1635111628.8125,0,0,17.662904779434516,0.0,1.0
1635111629.28125,0,0,19.56631815176453,0.0,1.0
1635111629.75,0,0,0.0,0.0,1.0
1635111630.21875,0,0,14.549763692480264,0.0,1.0
1635111630.6875,0,0,0.0,0.0,1.0
1635111631.15625,0,0,21.22761585332748,0.0,1.0
1635111631.625,0,0,0.0,0.0,1.0
1635111632.09375,0,0,17.847664366698428,0.0,1.0
1635111632.5625,0,0,21.74461183677019,0.0,1.0
1635111633.03125,0,0,0.0,0.0,1.0
1635111633.5,0,0,11.102872954453256,0.0,1.0
1635111633.96875,0,0,0.0,0.0,1.0
1635111634.4375,0,0,-13.443181238860484,0.0,1.0
1635111634.90625,0,0,0.0,0.0,1.0
1635111635.375,0,0,29.038844491060782,0.0,1.0
1635111635.84375,0,0,0.0,0.0,1.0
1635111636.3125,0,0,25.943349097553984,0.0,1.0
1635111636.78125,0,0,9.185539121420124,0.0,1.0
1635111637.25,0,0,0.0,0.0,1.0
1635111637.71875,0,0,29.35015963368189,0.0,1.0
1635111638.1875,0,0,0.0,0.0,1.0
1635111638.65625,0,0,21.20777598201946,0.0,1.0
1635111639.125,0,0,14.913242654445437,0.0,1.0
1635111639.59375,0,0,0.0,0.0,1.0
1635111640.0625,0,0,35.265858278996106,0.0,1.0
1635111640.53125,0,0,28.64407510514306,0.0,1.0
1635111641.0,0,0,26.17671732789445,0.0,1.0
1635111641.46875,0,0,0.0,0.0,1.0
1635111641.9375,0,0,24.194618650750666,0.0,1.0
1635111642.40625,0,0,0.0,0.0,1.0
1635111642.875,0,0,0.0,0.0,1.0
1635111643.34375,0,0,0.0,0.0,1.0
1635111643.8125,0,0,26.060917154849175,0.0,1.0
1635111644.28125,0,0,23.92361422679317,0.0,1.0
1635111644.75,0,0,0.0,0.0,1.0
1635111645.21875,0,0,23.441973931806608,0.0,1.0
1635111645.6875,0,0,0.0,0.0,1.0
1635111646.15625,0,0,23.04879125632642,0.0,1.0
1635111646.625,0,0,0.0,0.0,1.0
1635111647.09375,0,0,22.882700848011154,0.0,1.0
1635111647.5625,0,0,0.0,0.0,1.0
1635111648.03125,0,0,24.7296386759637,0.0,1.0
1635111648.5,0,0,32.47835999216485,0.0,1.0
1635111648.96875,0,0,0.0,0.0,1.0
1635111649.4375,0,0,27.145238915326633,0.0,1.0
1635111649.90625,0,0,0.0,0.0,1.0
1635111650.375,0,0,23.36800681757894,0.0,1.0
1635111650.84375,0,0,0.0,0.0,1.0
1635111651.3125,0,0,25.65857703539651,0.0,1.0
1635111651.78125,0,0,23.92646217837074,0.0,1.0
1635111652.25,0,0,25.185636227661792,0.0,1.0
1635111652.71875,0,0,0.0,0.0,1.0
1635111653.1875,0,0,0.0,0.0,1.0
1635111653.65625,0,0,23.61635245455608,0.0,1.0
1635111654.125,0,0,0.0,0.0,1.0
1635111654.59375,0,0,27.18921346872642,0.0,1.0
1635111655.0625,0,0,0.0,0.0,1.0
1635111655.53125,0,0,24.772910528011284,0.0,1.0
1635111656.0,0,0,0.0,0.0,1.0
1635111656.46875,0,0,17.28588484372623,0.0,1.0
1635111656.9375,0,0,19.134489499461615,0.0,1.0
1635111657.40625,0,0,0.0,0.0,1.0
1635111657.875,0,0,25.53035011069241,0.0,1.0
1635111658.34375,0,0,0.0,0.0,1.0
1635111658.8125,0,0,25.360755017170526,0.0,1.0
1635111659.28125,0,0,0.0,0.0,1.0
1635111659.75,0,0,25.398130368613767,0.0,1.0
1635111660.21875,0,0,0.0,0.0,1.0
1635111660.6875,0,0,17.844671835660957,0.0,1.0
1635111661.15625,0,0,28.611819800162376,0.0,1.0
1635111661.625,0,0,0.0,0.0,1.0
1635111662.09375,0,0,26.302209319463504,0.0,1.0
1635111662.5625,0,0,0.0,0.0,1.0
1635111663.03125,0,0,23.46436678081826,0.0,1.0
1635111663.5,0,0,0.0,0.0,1.0
1635111663.96875,0,0,23.68845678372494,0.0,1.0
1635111664.4375,0,0,0.0,0.0,1.0
1635111664.90625,0,0,20.929492984295685,0.0,1.0
1635111665.375,0,0,0.0,0.0,1.0
1635111665.84375,0,0,26.74495220708229,0.0,1.0
1635111666.3125,0,0,0.0,0.0,1.0
1635111666.78125,0,0,21.829090997079913,0.0,1.0
1635111667.25,0,0,21.90757674133558,0.0,1.0
1635111667.71875,0,0,22.18791182506896,0.0,1.0
1635111668.1875,0,0,0.0,0.0,1.0
1635111668.65625,0,0,27.980581284627068,0.0,1.0
1635111669.125,0,0,9.075345636629072,0.0,1.0
1635111669.59375,0,0,33.179605199731135,0.0,1.0
1635111670.0625,0,0,29.68456078168326,0.0,1.0
1635111670.53125,0,0,0.0,0.0,1.0
1635111671.0,0,0,13.360963005850904,0.0,1.0
1635111671.46875,0,0,31.483973584883557,0.0,1.0
1635111671.9375,0,0,0.0,0.0,1.0
1635111672.40625,0,0,29.265490756602965,0.0,1.0
1635111672.875,0,0,0.0,0.0,1.0
1635111673.34375,0,0,19.848914344140884,0.0,1.0
1635111673.8125,0,0,21.33365864316964,0.0,1.0
1635111674.28125,0,0,0.0,0.0,1.0
1635111674.75,0,0,34.59051684830236,0.0,1.0
1635111675.21875,0,0,0.0,0.0,1.0
1635111675.6875,0,0,66.60158103700809,0.0,1.0
1635111676.15625,0,0,5.626633470310144,0.0,1.0
1635111676.625,0,0,0.0,0.0,1.0
1635111677.09375,0,0,51.14964598191137,0.0,1.0
1635111677.5625,0,0,0.0,0.0,1.0
1635111678.03125,0,0,17.597499013729667,0.0,1.0
1635111678.5,0,0,27.65431537023016,0.0,1.0
1635111678.96875,0,0,0.0,0.0,1.0
1635111679.4375,0,0,20.846658487378537,0.0,1.0
1635111679.90625,0,0,0.0,0.0,1.0
1635111680.375,0,0,42.80053071988813,0.0,1.0
1635111680.84375,0,0,0.0,0.0,1.0
1635111681.3125,0,0,50.6757166823248,0.0,1.0
1635111681.78125,0,0,0.0,0.0,1.0
1635111682.25,0,0,24.079451735930054,0.0,1.0
1635111682.71875,0,0,0.0,0.0,1.0
1635111683.1875,0,0,27.77442351290302,0.0,1.0
1635111683.65625,0,0,31.74189301687657,0.0,1.0
1635111684.125,0,0,0.0,0.0,1.0
1635111684.59375,0,0,17.77394482860562,0.0,1.0
1635111685.0625,0,0,0.0,0.0,1.0
1635111685.53125,0,0,21.828107798427588,0.0,1.0
1635111686.0,0,0,0.0,0.0,1.0
1635111686.46875,0,0,24.769102320471305,0.0,1.0
1635111686.9375,0,0,0.0,0.0,1.0
1635111687.40625,0,0,25.78266801437376,0.0,1.0
1635111687.875,0,0,0.0,0.0,1.0
1635111688.34375,0,0,23.99668872674755,0.0,1.0
1635111688.8125,0,0,15.75648441090926,0.0,1.0
1635111689.28125,0,0,16.36211541052181,0.0,1.0
1635111689.75,0,0,8.022958555808627,0.0,1.0
1635111690.21875,0,0,42.003114166818634,0.0,1.0
1635111690.6875,0,0,-21.499446990647435,0.0,1.0
1635111691.15625,0,0,100.88928626856894,0.0,1.0
1635111691.625,0,0,0.0,0.0,1.0
1635111692.09375,0,0,16.962793910263528,0.0,1.0
1635111692.5625,0,0,23.32197746579087,0.0,1.0
1635111693.03125,0,0,-24.938348541064983,0.0,1.0
1635111693.5,0,0,90.75925503039515,0.0,1.0
1635111693.96875,0,0,0.0,0.0,1.0
1635111694.4375,0,0,9.723883774718233,0.0,1.0
1635111694.90625,0,0,0.0,0.0,1.0
1635111695.375,0,0,38.83220685081949,0.0,1.0
1635111695.84375,0,0,0.0,0.0,1.0
1635111696.3125,0,0,24.712500559144637,0.0,1.0
1635111696.78125,0,0,22.62280710639697,0.0,1.0
1635111697.25,0,0,0.0,0.0,1.0
1635111697.71875,0,0,26.75672139586059,0.0,1.0
1635111698.1875,0,0,0.0,0.0,1.0
1635111698.65625,0,0,21.951147659654158,0.0,1.0
1635111699.125,0,0,0.0,0.0,1.0
1635111699.59375,0,0,23.09369590348896,0.0,1.0
1635111700.0625,0,0,0.0,0.0,1.0
1635111700.53125,0,0,25.697363920462802,0.0,1.0
1635111701.0,0,0,0.0,0.0,1.0
1635111701.46875,0,0,22.888603416242777,0.0,1.0
1635111701.9375,0,0,0.0,0.0,1.0
1635111702.40625,0,0,25.436557189025503,0.0,1.0
1635111702.875,0,0,0.0,0.0,1.0
1635111703.34375,0,0,26.741010837396868,0.0,1.0
1635111703.8125,0,0,0.0,0.0,1.0
1635111704.28125,0,0,24.457159446169086,0.0,1.0
1635111704.75,0,0,20.872024072719626,0.0,1.0
1635111705.21875,0,0,22.172703973167156,0.0,1.0
1635111705.6875,0,0,0.0,0.0,1.0
1635111706.15625,0,0,34.17899382427919,0.0,1.0
1635111706.625,0,0,0.0,0.0,1.0
1635111707.09375,0,0,24.892603860239596,0.0,1.0
1635111707.5625,0,0,0.0,0.0,1.0
1635111708.03125,0,0,0.0,0.0,1.0
1635111708.5,0,0,23.16842402267074,0.0,1.0
1635111708.96875,0,0,0.0,0.0,1.0
1635111709.4375,0,0,23.489488535684085,0.0,1.0
1635111709.90625,0,0,0.0,0.0,1.0
1635111710.375,0,0,27.177338012593772,0.0,1.0
1635111710.84375,0,0,0.0,0.0,1.0
1635111711.3125,0,0,0.0,0.0,1.0
1635111711.78125,0,0,0.0,0.0,1.0
1635111712.25,0,0,27.403478696025417,0.0,1.0
1635111712.71875,0,0,0.0,0.0,1.0
1635111713.1875,0,0,29.280928125448572,0.0,1.0
1635111713.65625,0,0,0.0,0.0,1.0
1635111714.125,0,0,27.26724473899986,0.0,1.0
1635111714.59375,0,0,0.0,0.0,1.0
1635111715.0625,0,0,28.75938579872137,0.0,1.0
1635111715.53125,0,0,18.039925149502032,0.0,1.0
1635111716.0,0,0,24.09511638598127,0.0,1.0
1635111716.46875,0,0,21.680753787716228,0.0,1.0
1635111716.9375,0,0,0.0,0.0,1.0
1635111717.40625,0,0,40.38040975811032,0.0,1.0
1635111717.875,0,0,-6.428415733650003,0.0,1.0
1635111718.34375,0,0,0.0,0.0,1.0
1635111718.8125,0,0,29.700442903843086,0.0,1.0
1635111719.28125,0,0,21.574890372449502,0.0,1.0
1635111719.75,0,0,0.0,0.0,1.0
1635111720.21875,0,0,19.871054353333236,0.0,1.0
1635111720.6875,0,0,0.0,0.0,1.0
1635111721.15625,0,0,28.253749626204883,0.0,1.0
1635111721.625,0,0,0.0,0.0,1.0
1635111722.09375,0,0,25.83031231834259,0.0,1.0
1635111722.5625,0,0,0.0,0.0,1.0
1635111723.03125,0,0,22.968973500008218,0.0,1.0
1635111723.5,0,0,0.0,0.0,1.0
1635111723.96875,0,0,29.429398959772044,0.0,1.0
1635111724.4375,0,0,0.0,0.0,1.0
1635111724.90625,0,0,28.1689430429365,0.0,1.0
1635111725.375,0,0,0.0,0.0,1.0
1635111725.84375,0,0,0.0,0.0,1.0
1635111726.3125,0,0,24.14684394896155,0.0,1.0
1635111726.78125,0,0,0.0,0.0,1.0
1635111727.25,0,0,28.770542854088436,0.0,1.0
1635111727.71875,0,0,0.0,0.0,1.0
1635111728.1875,0,0,34.09929089287833,0.0,1.0
1635111728.65625,0,0,8.617296613434037,0.0,1.0
1635111729.125,0,0,35.34045566871165,0.0,1.0
1635111729.59375,0,0,10.539937327196453,0.0,1.0
1635111730.0625,0,0,25.703707195465146,0.0,1.0
1635111730.53125,0,0,0.0,0.0,1.0
1635111731.0,0,0,25.118481439134335,0.0,1.0
1635111731.46875,0,0,14.495380361142072,0.0,1.0
1635111731.9375,0,0,23.072611204920204,0.0,1.0
1635111732.40625,0,0,30.864199579868707,0.0,1.0
1635111732.875,0,0,0.0,0.0,1.0
1635111733.34375,0,0,0.0,0.0,1.0
1635111733.8125,0,0,140.02722170702214,0.0,1.0
1635111734.28125,0,0,29.418032748187247,0.0,1.0
1635111734.75,0,0,20.864871657191205,0.0,1.0
1635111735.21875,0,0,30.290391405293686,0.0,1.0
1635111735.6875,0,0,38.1460860621659,0.0,1.0
1635111736.15625,0,0,0.0,0.0,1.0
1635111736.625,0,0,0.0,0.0,1.0
1635111737.09375,0,0,82.00473726415748,0.0,1.0
1635111737.5625,0,0,0.0,0.0,1.0
1635111738.03125,0,0,15.711062058443103,0.0,1.0
1635111738.5,0,0,139.37096629925622,0.0,1.0
1635111738.96875,0,0,0.0,0.0,1.0
1635111739.4375,0,0,46.673275415791686,0.0,1.0
1635111739.90625,0,0,59.09760847290301,0.0,1.0
1635111740.375,0,0,0.0,0.0,1.0
1635111740.84375,0,0,140.41182193500075,0.0,1.0
1635111741.3125,0,0,0.0,0.0,1.0
1635111741.78125,0,0,86.78082562967614,0.0,1.0
1635111742.25,0,0,10.521400221735618,0.0,1.0
1635111742.71875,0,0,0.0,0.0,1.0
1635111743.1875,0,0,39.072136862996494,0.0,1.0
1635111743.65625,0,0,22.120640213844283,0.0,1.0
1635111744.125,0,0,0.0,0.0,1.0
1635111744.59375,0,0,24.189293931593507,0.0,1.0
1635111745.0625,0,0,20.7261613159954,0.0,1.0
1635111745.53125,0,0,0.0,0.0,1.0
1635111746.0,0,0,27.0909037369234,0.0,1.0
1635111746.46875,0,0,25.66787168186226,0.0,1.0
1635111746.9375,0,0,0.0,0.0,1.0
1635111747.40625,0,0,18.91630075074539,0.0,1.0
1635111747.875,0,0,22.119437238471367,0.0,1.0
1635111748.34375,0,0,39.2877690008989,0.0,1.0
1635111748.8125,0,0,21.179374339581404,0.0,1.0
1635111749.28125,0,0,0.0,0.0,1.0
1635111749.75,0,0,26.938721852601326,0.0,1.0
1635111750.21875,0,0,0.0,0.0,1.0
1635111750.6875,0,0,17.926490017032265,0.0,1.0
1635111751.15625,0,0,0.0,0.0,1.0
1635111751.625,0,0,0.0,0.0,1.0
1635111752.09375,0,0,14.865108402139446,0.0,1.0
1635111752.5625,0,0,14.595053202269167,0.0,1.0
1635111753.03125,0,0,18.772104434161076,0.0,1.0
1635111753.5,0,0,0.0,0.0,1.0
1635111753.96875,0,0,15.570658337200324,0.0,1.0
1635111754.4375,0,0,0.0,0.0,1.0
1635111754.90625,0,0,17.506459791342373,0.0,1.0
1635111755.375,0,0,0.0,0.0,1.0
1635111755.84375,0,0,19.09613669585119,0.0,1.0
1635111756.3125,0,0,0.0,0.0,1.0
1635111756.78125,0,0,20.349345675042684,0.0,1.0
1635111757.25,0,0,18.433397756960293,0.0,1.0
1635111757.71875,0,0,0.0,0.0,1.0
1635111758.1875,0,0,14.064481614992223,0.0,1.0
1635111758.65625,0,0,15.263882298871495,0.0,1.0
1635111759.125,0,0,16.16085826512904,0.0,1.0
1635111759.59375,0,0,0.0,0.0,1.0
1635111760.0625,0,0,18.36565580972519,0.0,1.0
1635111760.53125,0,0,0.0,0.0,1.0
1635111761.0,0,0,18.366501230350845,0.0,1.0
1635111761.46875,0,0,0.0,0.0,1.0
1635111761.9375,0,0,26.006596308962607,0.0,1.0
1635111762.40625,0,0,0.0,0.0,1.0
1635111762.875,0,0,27.51567694658349,0.0,1.0
1635111763.34375,0,0,0.0,0.0,1.0
1635111763.8125,0,0,25.333031505189382,0.0,1.0
1635111764.28125,0,0,0.0,0.0,1.0
1635111764.75,0,0,13.025588293698005,0.0,1.0
1635111765.21875,0,0,0.0,0.0,1.0
1635111765.6875,0,0,20.134730369706986,0.0,1.0
1635111766.15625,0,0,0.0,0.0,1.0
1635111766.625,0,0,16.743016164108937,0.0,1.0
1635111767.09375,0,0,0.0,0.0,1.0
1635111767.5625,0,0,27.69429295827515,0.0,1.0
1635111768.03125,0,0,12.53307150467648,0.0,1.0
1635111768.5,0,0,36.92556599031761,0.0,1.0
1635111768.96875,0,0,0.0,0.0,1.0
1635111769.4375,0,0,10.935878553770111,0.0,1.0
1635111769.90625,0,0,21.90645413336776,0.0,1.0
1635111770.375,0,0,0.0,0.0,1.0
1635111770.84375,0,0,32.716914543602094,0.0,1.0
1635111771.3125,0,0,0.0,0.0,1.0
1635111771.78125,0,0,20.24386394288684,0.0,1.0
1635111772.25,0,0,0.0,0.0,1.0
1635111772.71875,0,0,16.95468596718773,0.0,1.0
1635111773.1875,0,0,0.0,0.0,1.0
1635111773.65625,0,0,20.454218259455917,0.0,1.0
1635111774.125,0,0,0.0,0.0,1.0
1635111774.59375,0,0,58.84093774536899,0.0,1.0
1635111775.0625,0,0,0.0,0.0,1.0
1635111775.53125,0,0,16.14742560227993,0.0,1.0
1635111776.0,0,0,0.0,0.0,1.0
1635111776.46875,0,0,15.501749389806932,0.0,1.0
1635111776.9375,0,0,0.0,0.0,1.0
1635111777.40625,0,0,14.595790891336419,0.0,1.0
1635111777.875,0,0,0.0,0.0,1.0
1635111778.34375,0,0,17.622307088369084,0.0,1.0
1635111778.8125,0,0,0.0,0.0,1.0
1635111779.28125,0,0,0.0,0.0,1.0
1635111779.75,0,0,20.210838105503722,0.0,1.0
1635111780.21875,0,0,0.0,0.0,1.0
1635111780.6875,0,0,16.425019787121613,0.0,1.0
1635111781.15625,0,0,0.0,0.0,1.0
1635111781.625,0,0,16.91935807421192,0.0,1.0
1635111782.09375,0,0,0.0,0.0,1.0
1635111782.5625,0,0,16.43702276428359,0.0,1.0
1635111783.03125,0,0,0.0,0.0,1.0
1635111783.5,0,0,15.713950111974196,0.0,1.0
1635111783.96875,0,0,0.0,0.0,1.0
1635111784.4375,0,0,13.211326105357031,0.0,1.0
1635111784.90625,0,0,14.560337376481607,0.0,1.0
1635111785.375,0,0,15.013866709921238,0.0,1.0
1635111785.84375,0,0,0.0,0.0,1.0
1635111786.3125,0,0,14.159883013806025,0.0,1.0
1635111786.78125,0,0,0.0,0.0,1.0
1635111787.25,0,0,19.699422551940486,0.0,1.0
1635111787.71875,0,0,0.0,0.0,1.0
1635111788.1875,0,0,17.351162140497962,0.0,1.0
1635111788.65625,0,0,3.2606411678570986,0.0,1.0
1635111789.125,0,0,0.003466548901646744,0.0,1.0
1635111789.59375,0,0,15.07120613494145,0.0,1.0
1635111790.0625,0,0,-20.160396193442104,0.0,1.0
1635111790.53125,0,0,39.844103177118484,0.0,1.0
1635111791.0,0,0,0.0,0.0,1.0
1635111791.46875,0,0,40.516397086136365,0.0,1.0
1635111791.9375,0,0,-2.175567029870118,0.0,1.0
1635111792.40625,0,0,16.528959038725,0.0,1.0
1635111792.875,0,0,0.0,0.0,1.0
1635111793.34375,0,0,11.890549674882351,0.0,1.0
1635111793.8125,0,0,0.0,0.0,1.0
1635111794.28125,0,0,14.377408506962817,0.0,1.0
1635111794.75,0,0,0.0,0.0,1.0
1635111795.21875,0,0,0.0,0.0,1.0
1635111795.6875,0,0,0.0,0.0,1.0
1635111796.15625,0,0,15.411271303245956,0.0,1.0
1635111796.625,0,0,0.0,0.0,1.0
1635111797.09375,0,0,15.378041833285613,0.0,1.0
1635111797.5625,0,0,14.453613830199549,0.0,1.0
1635111798.03125,0,0,0.0,0.0,1.0
1635111798.5,0,0,16.66335930167063,0.0,1.0
1635111798.96875,0,0,0.0,0.0,1.0
1635111799.4375,0,0,13.80447586023433,0.0,1.0
1635111799.90625,0,0,0.0,0.0,1.0
1635111800.375,0,0,18.32840788370174,0.0,1.0
1635111800.84375,0,0,13.946022156803014,0.0,1.0
1635111801.3125,0,0,0.0,0.0,1.0
1635111801.78125,0,0,18.98684325915418,0.0,1.0
1635111802.25,0,0,0.0,0.0,1.0
1635111802.71875,0,0,18.668024931817488,0.0,1.0
1635111803.1875,0,0,0.0,0.0,1.0
1635111803.65625,0,0,20.084914831936022,0.0,1.0
1635111804.125,0,0,0.0,0.0,1.0
1635111804.59375,0,0,15.055358490755719,0.0,1.0
1635111805.0625,0,0,0.0,0.0,1.0
1635111805.53125,0,0,0.0,0.0,1.0
1635111806.0,0,0,20.678180849567386,0.0,1.0
1635111806.46875,0,0,0.0,0.0,1.0
1635111806.9375,0,0,17.488404630713127,0.0,1.0
1635111807.40625,0,0,0.0,0.0,1.0
1635111807.875,0,0,20.20798516813126,0.0,1.0
1635111808.34375,0,0,0.0,0.0,1.0
1635111808.8125,0,0,18.599853476284547,0.0,1.0
1635111809.28125,0,0,5.875870647228956,0.0,1.0
1635111809.75,0,0,50.322225580495264,0.0,1.0
1635111810.21875,0,0,0.0,0.0,1.0
1635111810.6875,0,0,18.81752759216178,0.0,1.0
1635111811.15625,0,0,17.96417446600165,0.0,1.0
1635111811.625,0,0,0.0,0.0,1.0
1635111812.09375,0,0,18.087993101057307,0.0,1.0
1635111812.5625,0,0,0.0,0.0,1.0
1635111813.03125,0,0,18.056509669855014,0.0,1.0
1635111813.5,0,0,0.0,0.0,1.0
1635111813.96875,0,0,13.52770392877364,0.0,1.0
1635111814.4375,0,0,0.0,0.0,1.0
1635111814.90625,0,0,16.88654837605617,0.0,1.0
1635111815.375,0,0,0.0,0.0,1.0
1635111815.84375,0,0,15.02698138819254,0.0,1.0
1635111816.3125,0,0,0.0,0.0,1.0
1635111816.78125,0,0,16.225702356547917,0.0,1.0
1635111817.25,0,0,16.230426617617134,0.0,1.0
1635111817.71875,0,0,0.0,0.0,1.0
1635111818.1875,0,0,49.01405884728175,0.0,1.0
1635111818.65625,0,0,0.0,0.0,1.0
1635111819.125,0,0,19.420056626830075,0.0,1.0
1635111819.59375,0,0,0.0,0.0,1.0
1635111820.0625,0,0,33.01755610815779,0.0,1.0
1635111820.53125,0,0,0.0,0.0,1.0
1635111821.0,0,0,12.757365342970648,0.0,1.0
1635111821.46875,0,0,20.957077919008764,0.0,1.0
1635111821.9375,0,0,0.0,0.0,1.0
1635111822.40625,0,0,0.0,0.0,1.0
1635111822.875,0,0,0.0,0.0,1.0
1635111823.34375,0,0,18.122269649239826,0.0,1.0
1635111823.8125,0,0,0.0,0.0,1.0
1635111824.28125,0,0,23.87192980841568,0.0,1.0
1635111824.75,0,0,0.0,0.0,1.0
1635111825.21875,0,0,13.953857302970675,0.0,1.0
1635111825.6875,0,0,0.0,0.0,1.0
1635111826.15625,0,0,15.03225899199196,0.0,1.0
1635111826.625,0,0,9.471843808286112,0.0,1.0
1635111827.09375,0,0,10.206321489135682,0.0,1.0
1635111827.5625,0,0,16.34308296719644,0.0,1.0
1635111828.03125,0,0,0.0,0.0,1.0
1635111828.5,0,0,19.206727696357174,0.0,1.0
1635111828.96875,0,0,0.0,0.0,1.0
1635111829.4375,0,0,15.858416551486942,0.0,1.0
1635111829.90625,0,0,0.0,0.0,1.0
1635111830.375,0,0,17.224509412534623,0.0,1.0
1635111830.84375,0,0,0.0,0.0,1.0
1635111831.3125,0,0,13.684785624207008,0.0,1.0
1635111831.78125,0,0,19.39696893319678,0.0,1.0
1635111832.25,0,0,0.0,0.0,1.0
1635111832.71875,0,0,11.198694510732356,0.0,1.0
1635111833.1875,0,0,11.172113078197418,0.0,1.0
1635111833.65625,0,0,9.761203668376286,0.0,1.0
1635111834.125,0,0,0.0,0.0,1.0
1635111834.59375,0,0,10.183480259457813,0.0,1.0
1635111835.0625,0,0,0.0,0.0,1.0
1635111835.53125,0,0,0.0,0.0,1.0
1635111836.0,0,0,15.071298622090966,0.0,1.0
1635111836.46875,0,0,0.0,0.0,1.0
1635111836.9375,0,0,15.976456250910973,0.0,1.0
1635111837.40625,0,0,0.0,0.0,1.0
1635111837.875,0,0,15.066842079272684,0.0,1.0
1635111838.34375,0,0,0.0,0.0,1.0
1635111838.8125,0,0,19.025686716492512,0.0,1.0
1635111839.28125,0,0,0.0,0.0,1.0
1635111839.75,0,0,13.488747671807618,0.0,1.0
1635111840.21875,0,0,16.121689394261214,0.0,1.0
1635111840.6875,0,0,0.0,0.0,1.0
1635111841.15625,0,0,18.1379686159454,0.0,1.0
1635111841.625,0,0,0.0,0.0,1.0
1635111842.09375,0,0,39.37418664931082,0.0,1.0
1635111842.5625,0,0,0.0,0.0,1.0
1635111843.03125,0,0,15.185840232160695,0.0,1.0
1635111843.5,0,0,0.0,0.0,1.0
1635111843.96875,0,0,14.694814384385941,0.0,1.0
1635111844.4375,0,0,0.0,0.0,1.0
1635111844.90625,0,0,17.197403060421813,0.0,1.0
1635111845.375,0,0,0.0,0.0,1.0
1635111845.84375,0,0,28.84975939452577,0.0,1.0
1635111846.3125,0,0,19.113062790756057,0.0,1.0
1635111846.78125,0,0,0.0,0.0,1.0
1635111847.25,0,0,23.694459032464245,0.0,1.0
1635111847.71875,0,0,0.0,0.0,1.0
1635111848.1875,0,0,11.810970991711436,0.0,1.0
1635111848.65625,0,0,0.0,0.0,1.0
1635111849.125,0,0,0.0,0.0,1.0
1635111849.59375,0,0,0.0,0.0,1.0
1635111850.0625,0,0,10.105229348696586,0.0,1.0
1635111850.53125,0,0,33.67959381739988,0.0,1.0
1635111851.0,0,0,0.0,0.0,1.0
1635111851.46875,0,0,11.436632507982823,0.0,1.0
1635111851.9375,0,0,26.313493188623223,0.0,1.0
1635111852.40625,0,0,0.0,0.0,1.0
1635111852.875,0,0,0.0,0.0,1.0
1635111853.34375,0,0,0.0,0.0,1.0
1635111853.8125,0,0,16.30764778030447,0.0,1.0
1635111854.28125,0,0,0.0,0.0,1.0
1635111854.75,0,0,17.385471665999244,0.0,1.0
1635111855.21875,0,0,0.0,0.0,1.0
1635111855.6875,0,0,16.86582928448899,0.0,1.0
1635111856.15625,0,0,-4.520993524710075,0.0,1.0
1635111856.625,0,0,24.30938271698637,0.0,1.0
1635111857.09375,0,0,5.752263226173049,0.0,1.0
1635111857.5625,0,0,0.0,0.0,1.0
1635111858.03125,0,0,11.68415964079078,0.0,1.0
1635111858.5,0,0,0.0,0.0,1.0
1635111858.96875,0,0,15.487764192612378,0.0,1.0
1635111859.4375,0,0,0.0,0.0,1.0
1635111859.90625,0,0,16.18502444027838,0.0,1.0
1635111860.375,0,0,0.0,0.0,1.0
1635111860.84375,0,0,19.98794546192584,0.0,1.0
1635111861.3125,0,0,12.250352815379191,0.0,1.0
1635111861.78125,0,0,0.0,0.0,1.0
1635111862.25,0,0,105.4828507017731,0.0,1.0
1635111862.71875,0,0,99.51269421476547,0.0,1.0
1635111863.1875,0,0,28.32665478153536,0.0,1.0
1635111863.65625,0,0,0.0,0.0,1.0
1635111864.125,0,0,55.46448503908648,0.0,1.0
1635111864.59375,0,0,0.0,0.0,1.0
1635111865.0625,0,0,162.9036356757483,0.0,1.0
1635111865.53125,0,0,138.99576103818507,0.0,1.0
1635111866.0,0,0,0.0,0.0,1.0
1635111866.46875,0,0,601.3977035905511,0.0,1.0
1635111866.9375,0,0,0.0,0.0,1.0
1635111867.40625,0,0,82.32900664309774,0.0,1.0
1635111867.875,0,0,125.5109760177303,0.0,1.0
1635111868.34375,0,0,20.867577750171836,0.0,1.0
1635111868.8125,0,0,51.21901744054018,0.0,1.0
1635111869.28125,0,0,0.0,0.0,1.0
1635111869.75,0,0,0.0,0.0,1.0
1635111870.21875,0,0,17.013873468689987,0.0,1.0
1635111870.6875,0,0,22.476269079521007,0.0,1.0
1635111871.15625,0,0,0.0,0.0,1.0
1635111871.625,0,0,18.646250372309034,0.0,1.0
1635111872.09375,0,0,0.0,0.0,1.0
1635111872.5625,0,0,24.170107408921876,0.0,1.0
1635111873.03125,0,0,10.337840864091929,0.0,1.0
1635111873.5,0,0,0.0,0.0,1.0
1635111873.96875,0,0,91.10296304508701,0.0,1.0
1635111874.4375,0,0,114.97690365907106,0.0,1.0
1635111874.90625,0,0,58.41818248230744,0.0,1.0
1635111875.375,0,0,0.0,0.0,1.0
1635111875.84375,0,0,42.712180518405354,0.0,1.0
1635111876.3125,0,0,-2.415872984631918,0.0,1.0
1635111876.78125,0,0,-3.4282281838800985,0.0,1.0
1635111877.25,0,0,8.017358585826898,0.0,1.0
1635111877.71875,0,0,0.0,0.0,1.0
1635111878.1875,0,0,0.0,0.0,1.0
1635111878.65625,0,0,5.869244709203995,0.0,1.0
1635111879.125,0,0,22.81455680302138,0.0,1.0
1635111879.59375,0,0,0.0,0.0,1.0
1635111880.0625,0,0,21.387843010745513,0.0,1.0
1635111880.53125,0,0,0.0,0.0,1.0
1635111881.0,0,0,20.98179939983545,0.0,1.0
1635111881.46875,0,0,13.217449251991859,0.0,1.0
1635111881.9375,0,0,0.0,0.0,1.0
1635111882.40625,0,0,14.580386594513898,0.0,1.0
1635111882.875,0,0,0.0,0.0,1.0
1635111883.34375,0,0,15.337957371467773,0.0,1.0
1635111883.8125,0,0,0.0,0.0,1.0
1635111884.28125,0,0,15.705079804245834,0.0,1.0
1635111884.75,0,0,15.407186796868803,0.0,1.0
1635111885.21875,0,0,0.0,0.0,1.0
1635111885.6875,0,0,13.052192672870083,0.0,1.0
1635111886.15625,0,0,0.0,0.0,1.0
1635111886.625,0,0,19.64420479687817,0.0,1.0
1635111887.09375,0,0,0.0,0.0,1.0
1635111887.5625,0,0,0.0,0.0,1.0
1635111888.03125,0,0,44.910698355452226,0.0,1.0
1635111888.5,0,0,-8.458611325448832,0.0,1.0
1635111888.96875,0,0,20.885790866792703,0.0,1.0
1635111889.4375,0,0,0.0,0.0,1.0
1635111889.90625,0,0,19.790257852066226,0.0,1.0
1635111890.375,0,0,0.0,0.0,1.0
1635111890.84375,0,0,22.74467515775228,0.0,1.0
1635111891.3125,0,0,0.0,0.0,1.0
1635111891.78125,0,0,108.50413214705569,0.0,1.0
1635111892.25,0,0,0.0,0.0,1.0
1635111892.71875,0,0,13.78670224378202,0.0,1.0
1635111893.1875,0,0,22.163125175902582,0.0,1.0
1635111893.65625,0,0,0.0,0.0,1.0
1635111894.125,0,0,15.575251694700365,0.0,1.0
1635111894.59375,0,0,17.913842225185928,0.0,1.0
1635111895.0625,0,0,17.633879040309516,0.0,1.0
1635111895.53125,0,0,17.046570589093207,0.0,1.0
1635111896.0,0,0,0.0,0.0,1.0
1635111896.46875,0,0,17.61497691469548,0.0,1.0
1635111896.9375,0,0,0.0,0.0,1.0
1635111897.40625,0,0,20.331956510055154,0.0,1.0
1635111897.875,0,0,4.170747163246756,0.0,1.0
1635111898.34375,0,0,0.0,0.0,1.0
1635111898.8125,0,0,7.301041633668114,0.0,1.0
1635111899.28125,0,0,7.615113710746456,0.0,1.0
1635111899.75,0,0,15.691239501462729,0.0,1.0
1635111900.21875,0,0,0.0,0.0,1.0
1635111900.6875,0,0,66.42465995292636,0.0,1.0
1635111901.15625,0,0,0.0,0.0,1.0
1635111901.625,0,0,20.04537958691196,0.0,1.0
1635111902.09375,0,0,0.0,0.0,1.0
1635111902.5625,0,0,16.6124032795513,0.0,1.0
1635111903.03125,0,0,0.0,0.0,1.0
1635111903.5,0,0,0.0,0.0,1.0
1635111903.96875,0,0,14.725244024347106,0.0,1.0
1635111904.4375,0,0,0.0,0.0,1.0
1635111904.90625,0,0,15.989078109386227,0.0,1.0
1635111905.375,0,0,0.0,0.0,1.0
1635111905.84375,0,0,17.93428791663395,0.0,1.0
1635111906.3125,0,0,0.0,0.0,1.0
1635111906.78125,0,0,17.290934210537156,0.0,1.0
1635111907.25,0,0,13.666753207022735,0.0,1.0
1635111907.71875,0,0,14.099234610773847,0.0,1.0
1635111908.1875,0,0,15.32242027200313,0.0,1.0
1635111908.65625,0,0,0.0,0.0,1.0
1635111909.125,0,0,16.125931157907942,0.0,1.0
1635111909.59375,0,0,0.0,0.0,1.0
1635111910.0625,0,0,14.60817488759782,0.0,1.0
1635111910.53125,0,0,0.0,0.0,1.0
1635111911.0,0,0,17.59625475794746,0.0,1.0
1635111911.46875,0,0,2.0785494814272574,0.0,1.0
1635111911.9375,0,0,43.89467890947889,0.0,1.0
1635111912.40625,0,0,1.1732970804084373,0.0,1.0
1635111912.875,0,0,-4.070538559425904,0.0,1.0
1635111913.34375,0,0,14.703823715495478,0.0,1.0
1635111913.8125,0,0,0.0,0.0,1.0
1635111914.28125,0,0,16.77310702308194,0.0,1.0
1635111914.75,0,0,0.0,0.0,1.0
1635111915.21875,0,0,14.729630492009166,0.0,1.0
1635111915.6875,0,0,11.34642290751371,0.0,1.0
1635111916.15625,0,0,11.508271215315348,0.0,1.0
1635111916.625,0,0,19.776672973960235,0.0,1.0
1635111917.09375,0,0,0.0,0.0,1.0
1635111917.5625,0,0,13.164218347564962,0.0,1.0
1635111918.03125,0,0,30.31284881690438,0.0,1.0
1635111918.5,0,0,0.0,0.0,1.0
1635111918.96875,0,0,0.0,0.0,1.0
1635111919.4375,0,0,0.0,0.0,1.0
1635111919.90625,0,0,18.594167597460615,0.0,1.0
1635111920.375,0,0,0.0,0.0,1.0
1635111920.84375,0,0,83.76143582123382,0.0,1.0
1635111921.3125,0,0,0.0,0.0,1.0
1635111921.78125,0,0,25.204090205306894,0.0,1.0
1635111922.25,0,0,0.0,0.0,1.0
1635111922.71875,0,0,30.294712891790542,0.0,1.0
1635111923.1875,0,0,0.0,0.0,1.0
1635111923.65625,0,0,20.6400522058129,0.0,1.0
1635111924.125,0,0,23.025021770163804,0.0,1.0
1635111924.59375,0,0,0.0,0.0,1.0
1635111925.0625,0,0,23.908849605903374,0.0,1.0
1635111925.53125,0,0,0.0,0.0,1.0
1635111926.0,0,0,19.859404134937026,0.0,1.0
1635111926.46875,0,0,0.0,0.0,1.0
1635111926.9375,0,0,25.582904108105065,0.0,1.0
1635111927.40625,0,0,-19.38792406555002,0.0,1.0
1635111927.875,0,0,32.33225285862504,0.0,1.0
1635111928.34375,0,0,8.86248593705596,0.0,1.0
1635111928.8125,0,0,13.073530163536597,0.0,1.0
1635111929.28125,0,0,0.0,0.0,1.0
1635111929.75,0,0,13.422182712203364,0.0,1.0
1635111930.21875,0,0,0.0,0.0,1.0
1635111930.6875,0,0,0.0,0.0,1.0
1635111931.15625,0,0,7.242808694541981,0.0,1.0
1635111931.625,0,0,0.0,0.0,1.0
1635111932.09375,0,0,20.26736384919692,0.0,1.0
1635111932.5625,0,0,5.919658428228423,0.0,1.0
1635111933.03125,0,0,6.410571389756492,0.0,1.0
1635111933.5,0,0,12.577529887229392,0.0,1.0
1635111933.96875,0,0,0.0,0.0,1.0
1635111934.4375,0,0,14.78785229060404,0.0,1.0
1635111934.90625,0,0,11.417517362014095,0.0,1.0
1635111935.375,0,0,13.395738227369574,0.0,1.0
1635111935.84375,0,0,10.469852511489467,0.0,1.0
1635111936.3125,0,0,0.0,0.0,1.0
1635111936.78125,0,0,57.50995527712735,0.0,1.0
1635111937.25,0,0,0.0,0.0,1.0
1635111937.71875,0,0,16.39103538151849,0.0,1.0
1635111938.1875,0,0,14.322637216317124,0.0,1.0
1635111938.65625,0,0,0.0,0.0,1.0
1635111939.125,0,0,14.103135250197024,0.0,1.0
1635111939.59375,0,0,0.0,0.0,1.0
1635111940.0625,0,0,14.351272798696238,0.0,1.0
1635111940.53125,0,0,11.40232349401436,0.0,1.0
1635111941.0,0,0,14.049093487476915,0.0,1.0
1635111941.46875,0,0,15.314470657549172,0.0,1.0
1635111941.9375,0,0,0.0,0.0,1.0
1635111942.40625,0,0,6.279682313299912,0.0,1.0
1635111942.875,0,0,45.6320238861584,0.0,1.0
1635111943.34375,0,0,6.12405929015386,0.0,1.0
1635111943.8125,0,0,0.0,0.0,1.0
1635111944.28125,0,0,16.320882624817976,0.0,1.0
1635111944.75,0,0,0.0,0.0,1.0
1635111945.21875,0,0,10.164465177488914,0.0,1.0
1635111945.6875,0,0,0.0,0.0,1.0
1635111946.15625,0,0,17.581877179536377,0.0,1.0
1635111946.625,0,0,15.214142749250511,0.0,1.0
1635111947.09375,0,0,0.0,0.0,1.0
1635111947.5625,0,0,19.350221954537403,0.0,1.0
1635111948.03125,0,0,0.0,0.0,1.0
1635111948.5,0,0,9.068106825580834,0.0,1.0
1635111948.96875,0,0,34.379741074726894,0.0,1.0
1635111949.4375,0,0,4.725572695087765,0.0,1.0
1635111949.90625,0,0,0.0,0.0,1.0
1635111950.375,0,0,0.0,0.0,1.0
1635111950.84375,0,0,0.0,0.0,1.0
1635111951.3125,0,0,17.221591262910582,0.0,1.0
1635111951.78125,0,0,16.74060545502247,0.0,1.0
1635111952.25,0,0,0.0,0.0,1.0
1635111952.71875,0,0,6.6374536522168714,0.0,1.0
1635111953.1875,0,0,31.04345090399745,0.0,1.0
1635111953.65625,0,0,1.1233008304076282,0.0,1.0
1635111954.125,0,0,0.0,0.0,1.0
1635111954.59375,0,0,12.825848923451924,0.0,1.0
1635111955.0625,0,0,3.87587003237421,0.0,1.0
1635111955.53125,0,0,5.741548356521068,0.0,1.0
1635111956.0,0,0,0.0,0.0,1.0
1635111956.46875,0,0,19.151312942438125,0.0,1.0
1635111956.9375,0,0,0.0,0.0,1.0
1635111957.40625,0,0,10.844760894500686,0.0,1.0
1635111957.875,0,0,12.870862762993243,0.0,1.0
1635111958.34375,0,0,0.0,0.0,1.0
1635111958.8125,0,0,17.27714225648633,0.0,1.0
1635111959.28125,0,0,0.0,0.0,1.0
1635111959.75,0,0,24.670334218648428,0.0,1.0
1635111960.21875,0,0,0.0,0.0,1.0
1635111960.6875,0,0,16.73687429324624,0.0,1.0
1635111961.15625,0,0,0.0,0.0,1.0
1635111961.625,0,0,17.769661047462165,0.0,1.0
1635111962.09375,0,0,0.0,0.0,1.0
1635111962.5625,0,0,18.330428249200196,0.0,1.0
1635111963.03125,0,0,0.0,0.0,1.0
1635111963.5,0,0,18.22970010318556,0.0,1.0
1635111963.96875,0,0,0.0,0.0,1.0
1635111964.4375,0,0,19.87557777478089,0.0,1.0
1635111964.90625,0,0,0.0,0.0,1.0
1635111965.375,0,0,16.29991187128192,0.0,1.0
1635111965.84375,0,0,14.343912633823658,0.0,1.0
1635111966.3125,0,0,0.0,0.0,1.0
1635111966.78125,0,0,15.089607700957615,0.0,1.0
1635111967.25,0,0,0.0,0.0,1.0
1635111967.71875,0,0,17.2580649682708,0.0,1.0
1635111968.1875,0,0,0.0,0.0,1.0
1635111968.65625,0,0,18.32540410784573,0.0,1.0
1635111969.125,0,0,0.0,0.0,1.0
1635111969.59375,0,0,12.894376910112126,0.0,1.0
1635111970.0625,0,0,13.693033038930665,0.0,1.0
1635111970.53125,0,0,14.236769819451428,0.0,1.0
1635111971.0,0,0,0.0,0.0,1.0
1635111971.46875,0,0,15.667529313720285,0.0,1.0
1635111971.9375,0,0,14.573405972200302,0.0,1.0
1635111972.40625,0,0,0.0,0.0,1.0
1635111972.875,0,0,10.844698581998138,0.0,1.0
1635111973.34375,0,0,0.0,0.0,1.0
1635111973.8125,0,0,23.737983671752893,0.0,1.0
1635111974.28125,0,0,0.0,0.0,1.0
1635111974.75,0,0,0.0,0.0,1.0
1635111975.21875,0,0,0.0,0.0,1.0
1635111975.6875,0,0,4.783981788693445,0.0,1.0
1635111976.15625,0,0,20.20608984263987,0.0,1.0
1635111976.625,0,0,0.0,0.0,1.0
1635111977.09375,0,0,11.323034739182297,0.0,1.0
1635111977.5625,0,0,0.0,0.0,1.0
1635111978.03125,0,0,16.34923929543935,0.0,1.0
1635111978.5,0,0,0.0,0.0,1.0
1635111978.96875,0,0,15.512741700721582,0.0,1.0
1635111979.4375,0,0,0.0,0.0,1.0
1635111979.90625,0,0,18.96221409334374,0.0,1.0
1635111980.375,0,0,0.0,0.0,1.0
1635111980.84375,0,0,8.02216816325429,0.0,1.0
1635111981.3125,0,0,0.0,0.0,1.0
1635111981.78125,0,0,0.0,0.0,1.0
1635111982.25,0,0,31.59613789005813,0.0,1.0
1635111982.71875,0,0,0.0,0.0,1.0
1635111983.1875,0,0,-1.1051927829229091,0.0,1.0
1635111983.65625,0,0,37.11961050794212,0.0,1.0
1635111984.125,0,0,0.0,0.0,1.0
1635111984.59375,0,0,18.729890554828728,0.0,1.0
1635111985.0625,0,0,14.133704883767898,0.0,1.0
1635111985.53125,0,0,0.0,0.0,1.0
1635111986.0,0,0,28.573606671533575,0.0,1.0
1635111986.46875,0,0,0.0,0.0,1.0
1635111986.9375,0,0,19.17064731132273,0.0,1.0
1635111987.40625,0,0,0.7766504453606919,0.0,1.0
1635111987.875,0,0,1.7536911592408972,0.0,1.0
1635111988.34375,0,0,14.984546534830594,0.0,1.0
1635111988.8125,0,0,0.0,0.0,1.0
1635111989.28125,0,0,0.0,0.0,1.0
1635111989.75,0,0,92.78604814127995,0.0,1.0
1635111990.21875,0,0,0.0,0.0,1.0
1635111990.6875,0,0,30.516603129701206,0.0,1.0
1635111991.15625,0,0,0.0,0.0,1.0
1635111991.625,0,0,26.504563634555698,0.0,1.0
1635111992.09375,0,0,19.215040822356727,0.0,1.0
1635111992.5625,0,0,14.527101074534711,0.0,1.0
1635111993.03125,0,0,0.0,0.0,1.0
1635111993.5,0,0,21.72431753030559,0.0,1.0
1635111993.96875,0,0,18.107470373273106,0.0,1.0
1635111994.4375,0,0,16.967095654529658,0.0,1.0
1635111994.90625,0,0,11.557742029493607,0.0,1.0
1635111995.375,0,0,0.0,0.0,1.0
1635111995.84375,0,0,20.0332032497603,0.0,1.0
1635111996.3125,0,0,0.0,0.0,1.0
1635111996.78125,0,0,9.233124897703231,0.0,1.0
1635111997.25,0,0,7.644719797075784,0.0,1.0
1635111997.71875,0,0,7.747677361751595,0.0,1.0
1635111998.1875,0,0,9.386814701323482,0.0,1.0
1635111998.65625,0,0,0.0,0.0,1.0
1635111999.125,0,0,3.0613679334727553,0.0,1.0
1635111999.59375,0,0,0.0,0.0,1.0
1635112000.0625,0,0,40.630017659598266,0.0,1.0
1635112000.53125,0,0,0.0,0.0,1.0
1635112001.0,0,0,9.331274491149884,0.0,1.0
1635112001.46875,0,0,9.945964698794098,0.0,1.0
1635112001.9375,0,0,0.0,0.0,1.0
1635112002.40625,0,0,12.182783118020296,0.0,1.0
1635112002.875,0,0,0.0,0.0,1.0
1635112003.34375,0,0,13.859212029880645,0.0,1.0
1635112003.8125,0,0,0.0,0.0,1.0
1635112004.28125,0,0,14.450564548697118,0.0,1.0
1635112004.75,0,0,0.0,0.0,1.0
1635112005.21875,0,0,0.0,0.0,1.0
1635112005.6875,0,0,5.414392451389011,0.0,1.0
1635112006.15625,0,0,44.42724581526768,0.0,1.0
1635112006.625,0,0,17.226208723718933,0.0,1.0
1635112007.09375,0,0,0.0,0.0,1.0
1635112007.5625,0,0,18.10815314581823,0.0,1.0
1635112008.03125,0,0,16.88857810387074,0.0,1.0
1635112008.5,0,0,11.07051491446207,0.0,1.0
1635112008.96875,0,0,0.0,0.0,1.0
1635112009.4375,0,0,18.84983913362977,0.0,1.0
1635112009.90625,0,0,0.0,0.0,1.0
1635112010.375,0,0,0.0,0.0,1.0
1635112010.84375,0,0,21.159295138616258,0.0,1.0
1635112011.3125,0,0,0.0,0.0,1.0
1635112011.78125,0,0,19.504940554750785,0.0,1.0
1635112012.25,0,0,0.0,0.0,1.0
1635112012.71875,0,0,18.78168851869053,0.0,1.0
1635112013.1875,0,0,0.0,0.0,1.0
1635112013.65625,0,0,18.072203852489583,0.0,1.0
1635112014.125,0,0,0.0,0.0,1.0
1635112014.59375,0,0,22.090950281083135,0.0,1.0
1635112015.0625,0,0,0.0,0.0,1.0
1635112015.53125,0,0,15.330351937644917,0.0,1.0
1635112016.0,0,0,0.0,0.0,1.0
1635112016.46875,0,0,13.721894912664334,0.0,1.0
1635112016.9375,0,0,12.222211724523873,0.0,1.0
1635112017.40625,0,0,13.531807372372418,0.0,1.0
1635112017.875,0,0,0.0,0.0,1.0
1635112018.34375,0,0,17.590029749791263,0.0,1.0
1635112018.8125,0,0,0.0,0.0,1.0
1635112019.28125,0,0,15.628635036250062,0.0,1.0
1635112019.75,0,0,0.0,0.0,1.0
1635112020.21875,0,0,16.941113383928684,0.0,1.0
1635112020.6875,0,0,0.0,0.0,1.0
1635112021.15625,0,0,0.0,0.0,1.0
1635112021.625,0,0,15.388199617548521,0.0,1.0
1635112022.09375,0,0,0.0,0.0,1.0
1635112022.5625,0,0,17.10863748950058,0.0,1.0
1635112023.03125,0,0,0.0,0.0,1.0
1635112023.5,0,0,18.50022571726254,0.0,1.0
1635112023.96875,0,0,0.0,0.0,1.0
1635112024.4375,0,0,12.792235951174648,0.0,1.0
1635112024.90625,0,0,0.0,0.0,1.0
1635112025.375,0,0,14.954604975791025,0.0,1.0
1635112025.84375,0,0,0.0,0.0,1.0
1635112026.3125,0,0,16.006357408333127,0.0,1.0
1635112026.78125,0,0,0.0,0.0,1.0
1635112027.25,0,0,14.881198954787891,0.0,1.0
1635112027.71875,0,0,0.0,0.0,1.0
1635112028.1875,0,0,12.934404109782191,0.0,1.0
1635112028.65625,0,0,0.0,0.0,1.0
1635112029.125,0,0,17.19500600252442,0.0,1.0
1635112029.59375,0,0,0.0,0.0,1.0
1635112030.0625,0,0,16.526173546459752,0.0,1.0
1635112030.53125,0,0,14.2935052937104,0.0,1.0
1635112031.0,0,0,0.0,0.0,1.0
1635112031.46875,0,0,17.236110432092776,0.0,1.0
1635112031.9375,0,0,0.0,0.0,1.0
1635112032.40625,0,0,14.701285593099094,0.0,1.0
1635112032.875,0,0,0.0,0.0,1.0
1635112033.34375,0,0,15.846387368478505,0.0,1.0
1635112033.8125,0,0,0.0,0.0,1.0
1635112034.28125,0,0,78.52011361167737,0.0,1.0
1635112034.75,0,0,0.0,0.0,1.0
1635112035.21875,0,0,16.497129399988715,0.0,1.0
1635112035.6875,0,0,0.0,0.0,1.0
1635112036.15625,0,0,0.0,0.0,1.0
1635112036.625,0,0,15.656916030569827,0.0,1.0
1635112037.09375,0,0,0.0,0.0,1.0
1635112037.5625,0,0,16.148829918544337,0.0,1.0
1635112038.03125,0,0,0.0,0.0,1.0
1635112038.5,0,0,17.05193624240648,0.0,1.0
1635112038.96875,0,0,0.0,0.0,1.0
1635112039.4375,0,0,127.49541115662689,0.0,1.0
1635112039.90625,0,0,-1.7241047390176578,0.0,1.0
1635112040.375,0,0,49.17394573631822,0.0,1.0
1635112040.84375,0,0,36.320016684846756,0.0,1.0
1635112041.3125,0,0,26.38528439493672,0.0,1.0
1635112041.78125,0,0,0.0,0.0,1.0
1635112042.25,0,0,16.449045657785394,0.0,1.0
1635112042.71875,0,0,13.818888186568952,0.0,1.0
1635112043.1875,0,0,0.0,0.0,1.0
1635112043.65625,0,0,21.536469260083834,0.0,1.0
1635112044.125,0,0,0.0,0.0,1.0
1635112044.59375,0,0,16.43403994685411,0.0,1.0
1635112045.0625,0,0,0.0,0.0,1.0
1635112045.53125,0,0,16.690690730340293,0.0,1.0
1635112046.0,0,0,15.996022814860975,0.0,1.0
1635112046.46875,0,0,0.0,0.0,1.0
1635112046.9375,0,0,0.0,0.0,1.0
1635112047.40625,0,0,0.0,0.0,1.0
1635112047.875,0,0,13.920964968198335,0.0,1.0
1635112048.34375,0,0,0.0,0.0,1.0
1635112048.8125,0,0,18.4532126414337,0.0,1.0
1635112049.28125,0,0,0.0,0.0,1.0
1635112049.75,0,0,16.817162827652645,0.0,1.0
1635112050.21875,0,0,0.0,0.0,1.0
1635112050.6875,0,0,16.132798450753906,0.0,1.0
1635112051.15625,0,0,7.886331664935373,0.0,1.0
1635112051.625,0,0,6.089191712259767,0.0,1.0
1635112052.09375,0,0,17.196293841221948,0.0,1.0
1635112052.5625,0,0,0.0,0.0,1.0
1635112053.03125,0,0,12.015379218698506,0.0,1.0
1635112053.5,0,0,13.883668183086803,0.0,1.0
1635112053.96875,0,0,0.0,0.0,1.0
1635112054.4375,0,0,12.356706201208393,0.0,1.0
1635112054.90625,0,0,17.339105682038184,0.0,1.0
1635112055.375,0,0,0.0,0.0,1.0
1635112055.84375,0,0,16.056566523920814,0.0,1.0
1635112056.3125,0,0,0.0,0.0,1.0
1635112056.78125,0,0,14.282639260749816,0.0,1.0
1635112057.25,0,0,0.0,0.0,1.0
1635112057.71875,0,0,16.117688981647262,0.0,1.0
1635112058.1875,0,0,0.0,0.0,1.0
1635112058.65625,0,0,12.28022957664038,0.0,1.0
1635112059.125,0,0,12.787896592192382,0.0,1.0
1635112059.59375,0,0,0.0,0.0,1.0
1635112060.0625,0,0,12.260415386131163,0.0,1.0
1635112060.53125,0,0,0.0,0.0,1.0
1635112061.0,0,0,11.506869119000973,0.0,1.0
1635112061.46875,0,0,0.0,0.0,1.0
1635112061.9375,0,0,12.952224954647523,0.0,1.0
1635112062.40625,0,0,13.133547343657526,0.0,1.0
1635112062.875,0,0,0.0,0.0,1.0
1635112063.34375,0,0,14.429181062384323,0.0,1.0
1635112063.8125,0,0,0.0,0.0,1.0
1635112064.28125,0,0,16.17486960003152,0.0,1.0
1635112064.75,0,0,0.0,0.0,1.0
1635112065.21875,0,0,8.323550169706007,0.0,1.0
1635112065.6875,0,0,19.48664773977889,0.0,1.0
1635112066.15625,0,0,-3.5540079708885535,0.0,1.0
1635112066.625,0,0,16.194650766901276,0.0,1.0
1635112067.09375,0,0,0.0,0.0,1.0
1635112067.5625,0,0,15.75774187861181,0.0,1.0
1635112068.03125,0,0,0.0,0.0,1.0
1635112068.5,0,0,17.228527604332786,0.0,1.0
1635112068.96875,0,0,0.0,0.0,1.0
1635112069.4375,0,0,17.1086818457291,0.0,1.0
1635112069.90625,0,0,0.0,0.0,1.0
1635112070.375,0,0,17.120188821982584,0.0,1.0
1635112070.84375,0,0,0.0,0.0,1.0
1635112071.3125,0,0,16.195541528119183,0.0,1.0
1635112071.78125,0,0,0.0,0.0,1.0
1635112072.25,0,0,16.929960360953416,0.0,1.0
1635112072.71875,0,0,19.28698478264257,0.0,1.0
1635112073.1875,0,0,0.0,0.0,1.0
1635112073.65625,0,0,0.0,0.0,1.0
1635112074.125,0,0,0.0,0.0,1.0
1635112074.59375,0,0,19.57463174701176,0.0,1.0
1635112075.0625,0,0,0.0,0.0,1.0
1635112075.53125,0,0,22.1285688299709,0.0,1.0
1635112076.0,0,0,0.0,0.0,1.0
1635112076.46875,0,0,22.387646779234046,0.0,1.0
1635112076.9375,0,0,0.0,0.0,1.0
1635112077.40625,0,0,21.46080885017646,0.0,1.0
1635112077.875,0,0,19.423322377822366,0.0,1.0
1635112078.34375,0,0,0.0,0.0,1.0
1635112078.8125,0,0,20.53065190795059,0.0,1.0
1635112079.28125,0,0,0.0,0.0,1.0
1635112079.75,0,0,21.579420922255817,0.0,1.0
1635112080.21875,0,0,0.0,0.0,1.0
1635112080.6875,0,0,20.285236143242738,0.0,1.0
1635112081.15625,0,0,0.0,0.0,1.0
1635112081.625,0,0,22.30589154757877,0.0,1.0
1635112082.09375,0,0,15.538409682278996,0.0,1.0
1635112082.5625,0,0,18.325793774232306,0.0,1.0
1635112083.03125,0,0,19.031908793780786,0.0,1.0
1635112083.5,0,0,0.0,0.0,1.0
1635112083.96875,0,0,19.188423792182775,0.0,1.0
1635112084.4375,0,0,0.0,0.0,1.0
1635112084.90625,0,0,21.145514620551296,0.0,1.0
1635112085.375,0,0,0.0,0.0,1.0
1635112085.84375,0,0,46.18940187137248,0.0,1.0
1635112086.3125,0,0,0.0,0.0,1.0
1635112086.78125,0,0,20.564544214361753,0.0,1.0
1635112087.25,0,0,0.0,0.0,1.0
1635112087.71875,0,0,19.320062330409947,0.0,1.0
1635112088.1875,0,0,22.13369242063828,0.0,1.0
1635112088.65625,0,0,0.0,0.0,1.0
1635112089.125,0,0,14.49591783137279,0.0,1.0
1635112089.59375,0,0,0.0,0.0,1.0
1635112090.0625,0,0,0.0,0.0,1.0
1635112090.53125,0,0,0.0,0.0,1.0
1635112091.0,0,0,0.0,0.0,1.0
1635112091.46875,0,0,0.0,0.0,1.0
1635112091.9375,0,0,0.0,0.0,1.0
1635112092.40625,0,0,21.446453923579195,0.0,1.0
1635112092.875,0,0,0.0,0.0,1.0
1635112093.34375,0,0,14.526026751021153,0.0,1.0
1635112093.8125,0,0,0.0,0.0,1.0
1635112094.28125,0,0,24.048196566953163,0.0,1.0
1635112094.75,0,0,19.84140575342197,0.0,1.0
1635112095.21875,0,0,0.0,0.0,1.0
1635112095.6875,0,0,0.0,0.0,1.0
1635112096.15625,0,0,0.0,0.0,1.0
1635112096.625,0,0,20.62481147494227,0.0,1.0
1635112097.09375,0,0,0.0,0.0,1.0
1635112097.5625,0,0,55.52194848502043,0.0,1.0
1635112098.03125,0,0,0.0,0.0,1.0
1635112098.5,0,0,68.21337769927501,0.0,1.0
1635112098.96875,0,0,40.54816300552228,0.0,1.0
1635112099.4375,0,0,44.766821072637384,0.0,1.0
1635112099.90625,0,0,46.51373360492868,0.0,1.0
1635112100.375,0,0,-12.412791207803972,0.0,1.0
1635112100.84375,0,0,67.58194158198148,0.0,1.0
1635112101.3125,0,0,0.0,0.0,1.0
1635112101.78125,0,0,20.322057910276357,0.0,1.0
1635112102.25,0,0,0.0,0.0,1.0
1635112102.71875,0,0,0.0,0.0,1.0
1635112103.1875,0,0,27.554596445355763,0.0,1.0
1635112103.65625,0,0,3.835637076489934,0.0,1.0
1635112104.125,0,0,16.640081813094273,0.0,1.0
1635112104.59375,0,0,55.0403992372302,0.0,1.0
1635112105.0625,0,0,0.0,0.0,1.0
1635112105.53125,0,0,125.3769617714474,0.0,1.0
1635112106.0,0,0,0.0,0.0,1.0
1635112106.46875,0,0,30.656933476295222,0.0,1.0
1635112106.9375,0,0,0.0,0.0,1.0
1635112107.40625,0,0,0.0,0.0,1.0
1635112107.875,0,0,39.9199312516833,0.0,1.0
1635112108.34375,0,0,26.810619875688808,0.0,1.0
1635112108.8125,0,0,0.0,0.0,1.0
1635112109.28125,0,0,24.71602308624806,0.0,1.0
1635112109.75,0,0,0.0,0.0,1.0
1635112110.21875,0,0,0.0,0.0,1.0
1635112110.6875,0,0,21.847342051866576,0.0,1.0
1635112111.15625,0,0,0.0,0.0,1.0
1635112111.625,0,0,20.635361127917193,0.0,1.0
1635112112.09375,0,0,0.0,0.0,1.0
1635112112.5625,0,0,21.893507346260797,0.0,1.0
1635112113.03125,0,0,0.0,0.0,1.0
1635112113.5,0,0,23.850121453167738,0.0,1.0
1635112113.96875,0,0,0.0,0.0,1.0
1635112114.4375,0,0,19.90452300439253,0.0,1.0
1635112114.90625,0,0,0.0,0.0,1.0
1635112115.375,0,0,10.271599112161155,0.0,1.0
1635112115.84375,0,0,15.64920518298984,0.0,1.0
1635112116.3125,0,0,0.0,0.0,1.0
1635112116.78125,0,0,20.724695602440498,0.0,1.0
1635112117.25,0,0,0.0,0.0,1.0
1635112117.71875,0,0,16.96872556891391,0.0,1.0
1635112118.1875,0,0,18.876581984224575,0.0,1.0
1635112118.65625,0,0,19.322238386893446,0.0,1.0
1635112119.125,0,0,13.332902823670922,0.0,1.0
1635112119.59375,0,0,15.73338193042832,0.0,1.0
1635112120.0625,0,0,0.0,0.0,1.0
1635112120.53125,0,0,0.0,0.0,1.0
1635112121.0,0,0,19.996047451432865,0.0,1.0
1635112121.46875,0,0,0.0,0.0,1.0
1635112121.9375,0,0,23.075202199964696,0.0,1.0
1635112122.40625,0,0,0.0,0.0,1.0
1635112122.875,0,0,25.79046207192787,0.0,1.0
1635112123.34375,0,0,0.0,0.0,1.0
1635112123.8125,0,0,21.701976970922843,0.0,1.0
1635112124.28125,0,0,0.0,0.0,1.0
1635112124.75,0,0,21.838087173849303,0.0,1.0
1635112125.21875,0,0,0.0,0.0,1.0
1635112125.6875,0,0,21.99831757875544,0.0,1.0
1635112126.15625,0,0,0.0,0.0,1.0
1635112126.625,0,0,24.544205769286204,0.0,1.0
1635112127.09375,0,0,19.272492714391813,0.0,1.0
1635112127.5625,0,0,0.0,0.0,1.0
1635112128.03125,0,0,21.82094330721665,0.0,1.0
1635112128.5,0,0,0.0,0.0,1.0
1635112128.96875,0,0,25.278663307921434,0.0,1.0
1635112129.4375,0,0,0.0,0.0,1.0
1635112129.90625,0,0,0.0,0.0,1.0
1635112130.375,0,0,19.42944682545797,0.0,1.0
1635112130.84375,0,0,20.35997996349881,0.0,1.0
1635112131.3125,0,0,0.0,0.0,1.0
1635112131.78125,0,0,19.76812686277764,0.0,1.0
1635112132.25,0,0,0.0,0.0,1.0
1635112132.71875,0,0,22.458059692783934,0.0,1.0
1635112133.1875,0,0,0.0,0.0,1.0
1635112133.65625,0,0,20.134130990909977,0.0,1.0
1635112134.125,0,0,0.0,0.0,1.0
1635112134.59375,0,0,0.0,0.0,1.0
1635112135.0625,0,0,18.065003749169318,0.0,1.0
1635112135.53125,0,0,20.635332337085174,0.0,1.0
1635112136.0,0,0,20.83914143995181,0.0,1.0
1635112136.46875,0,0,0.0,0.0,1.0
1635112136.9375,0,0,22.847696282955464,0.0,1.0
1635112137.40625,0,0,0.0,0.0,1.0
1635112137.875,0,0,24.33497224835743,0.0,1.0
1635112138.34375,0,0,0.0,0.0,1.0
1635112138.8125,0,0,21.76559392615272,0.0,1.0
1635112139.28125,0,0,0.0,0.0,1.0
1635112139.75,0,0,21.13440913163238,0.0,1.0
1635112140.21875,0,0,0.0,0.0,1.0
1635112140.6875,0,0,20.86288830306539,0.0,1.0
1635112141.15625,0,0,0.0,0.0,1.0
1635112141.625,0,0,19.945266080741582,0.0,1.0
1635112142.09375,0,0,0.0,0.0,1.0
1635112142.5625,0,0,18.221648998833047,0.0,1.0
1635112143.03125,0,0,0.0,0.0,1.0
1635112143.5,0,0,22.82740160061698,0.0,1.0
1635112143.96875,0,0,19.871598782926565,0.0,1.0
1635112144.4375,0,0,0.0,0.0,1.0
1635112144.90625,0,0,20.263924816008593,0.0,1.0
1635112145.375,0,0,0.0,0.0,1.0
1635112145.84375,0,0,0.0,0.0,1.0
1635112146.3125,0,0,0.0,0.0,1.0
1635112146.78125,0,0,17.622553496855673,0.0,1.0
1635112147.25,0,0,0.0,0.0,1.0
1635112147.71875,0,0,21.574721302717492,0.0,1.0
1635112148.1875,0,0,0.0,0.0,1.0
1635112148.65625,0,0,18.198702849583633,0.0,1.0
1635112149.125,0,0,0.0,0.0,1.0
1635112149.59375,0,0,17.93969662393368,0.0,1.0
1635112150.0625,0,0,0.0,0.0,1.0
1635112150.53125,0,0,21.260178225400065,0.0,1.0
1635112151.0,0,0,17.719395091640564,0.0,1.0
1635112151.46875,0,0,19.530969652630663,0.0,1.0
1635112151.9375,0,0,0.0,0.0,1.0
1635112152.40625,0,0,22.98485732819122,0.0,1.0
1635112152.875,0,0,15.624722749432285,0.0,1.0
1635112153.34375,0,0,16.20362901611496,0.0,1.0
1635112153.8125,0,0,19.181288298747525,0.0,1.0
1635112154.28125,0,0,0.0,0.0,1.0
1635112154.75,0,0,22.124925209690666,0.0,1.0
1635112155.21875,0,0,0.0,0.0,1.0
1635112155.6875,0,0,19.24131264179388,0.0,1.0
1635112156.15625,0,0,0.0,0.0,1.0
1635112156.625,0,0,17.668568024504005,0.0,1.0
1635112157.09375,0,0,0.0,0.0,1.0
1635112157.5625,0,0,21.660366316703083,0.0,1.0
1635112158.03125,0,0,0.0,0.0,1.0
1635112158.5,0,0,21.9883386108834,0.0,1.0
1635112158.96875,0,0,0.0,0.0,1.0
1635112159.4375,0,0,24.25800993042013,0.0,1.0
1635112159.90625,0,0,0.0,0.0,1.0
1635112160.375,0,0,20.191164273177016,0.0,1.0
1635112160.84375,0,0,0.0,0.0,1.0
1635112161.3125,0,0,17.413232237286305,0.0,1.0
1635112161.78125,0,0,0.0,0.0,1.0
1635112162.25,0,0,0.0,0.0,1.0
1635112162.71875,0,0,24.267961214658833,0.0,1.0
1635112163.1875,0,0,0.0,0.0,1.0
1635112163.65625,0,0,18.6844583401018,0.0,1.0
1635112164.125,0,0,0.0,0.0,1.0
1635112164.59375,0,0,21.47626495751887,0.0,1.0
1635112165.0625,0,0,0.0,0.0,1.0
1635112165.53125,0,0,21.718519274220295,0.0,1.0
1635112166.0,0,0,0.0,0.0,1.0
1635112166.46875,0,0,18.744592627056914,0.0,1.0
1635112166.9375,0,0,0.0,0.0,1.0
1635112167.40625,0,0,19.98321340559993,0.0,1.0
1635112167.875,0,0,0.0,0.0,1.0
1635112168.34375,0,0,21.86238247490757,0.0,1.0
1635112168.8125,0,0,0.0,0.0,1.0
1635112169.28125,0,0,29.03552206403962,0.0,1.0
1635112169.75,0,0,21.87484933222551,0.0,1.0
1635112170.21875,0,0,116.69086354844899,0.0,1.0
1635112170.6875,0,0,37.17882994767956,0.0,1.0
1635112171.15625,0,0,0.0,0.0,1.0
1635112171.625,0,0,0.0,0.0,1.0
1635112172.09375,0,0,19.874556323670777,0.0,1.0
1635112172.5625,0,0,0.0,0.0,1.0
1635112173.03125,0,0,8.300087581630889,0.0,1.0
1635112173.5,0,0,0.0,0.0,1.0
1635112173.96875,0,0,0.0,0.0,1.0
1635112174.4375,0,0,20.22058424708767,0.0,1.0
1635112174.90625,0,0,0.0,0.0,1.0
1635112175.375,0,0,20.753714995823323,0.0,1.0
1635112175.84375,0,0,0.0,0.0,1.0
1635112176.3125,0,0,15.562704602208418,0.0,1.0
1635112176.78125,0,0,0.0,0.0,1.0
1635112177.25,0,0,16.8485356780303,0.0,1.0
1635112177.71875,0,0,21.7657717853652,0.0,1.0
1635112178.1875,0,0,4.943742999390263,0.0,1.0
1635112178.65625,0,0,19.108105016709207,0.0,1.0
1635112179.125,0,0,0.0,0.0,1.0
1635112179.59375,0,0,0.0,0.0,1.0
1635112180.0625,0,0,36.911792803029996,0.0,1.0
1635112180.53125,0,0,-18.37043537559913,0.0,1.0
1635112181.0,0,0,23.284626940846298,0.0,1.0
1635112181.46875,0,0,0.0,0.0,1.0
1635112181.9375,0,0,21.579542977782463,0.0,1.0
1635112182.40625,0,0,0.0,0.0,1.0
1635112182.875,0,0,16.475533059207866,0.0,1.0
1635112183.34375,0,0,0.0,0.0,1.0
1635112183.8125,0,0,15.392577585916065,0.0,1.0
1635112184.28125,0,0,0.0,0.0,1.0
1635112184.75,0,0,12.497112052539505,0.0,1.0
1635112185.21875,0,0,0.0,0.0,1.0
1635112185.6875,0,0,7.012993224285176,0.0,1.0
1635112186.15625,0,0,9.059998538653264,0.0,1.0
1635112186.625,0,0,3.289562053712668,0.0,1.0
1635112187.09375,0,0,0.0,0.0,1.0
1635112187.5625,0,0,15.489896243279969,0.0,1.0
1635112188.03125,0,0,0.0,0.0,1.0
1635112188.5,0,0,0.0,0.0,1.0
1635112188.96875,0,0,0.0,0.0,1.0
1635112189.4375,0,0,17.390558702686377,0.0,1.0
1635112189.90625,0,0,0.0,0.0,1.0
1635112190.375,0,0,48.67026426490106,0.0,1.0
1635112190.84375,0,0,0.0,0.0,1.0
1635112191.3125,0,0,20.929083734678127,0.0,1.0
1635112191.78125,0,0,0.0,0.0,1.0
1635112192.25,0,0,0.0,0.0,1.0
1635112192.71875,0,0,0.0,0.0,1.0
1635112193.1875,0,0,0.0,0.0,1.0
1635112193.65625,0,0,22.75552893781471,0.0,1.0
1635112194.125,0,0,0.0,0.0,1.0
1635112194.59375,0,0,22.24677628209765,0.0,1.0
1635112195.0625,0,0,0.0,0.0,1.0
1635112195.53125,0,0,22.813933792350507,0.0,1.0
1635112196.0,0,0,0.0,0.0,1.0
1635112196.46875,0,0,23.45098971544728,0.0,1.0
1635112196.9375,0,0,0.0,0.0,1.0
1635112197.40625,0,0,22.44787579059608,0.0,1.0
1635112197.875,0,0,0.0,0.0,1.0
1635112198.34375,0,0,20.778871171158634,0.0,1.0
1635112198.8125,0,0,0.0,0.0,1.0
1635112199.28125,0,0,19.66877944316201,0.0,1.0
1635112199.75,0,0,19.03690990314033,0.0,1.0
1635112200.21875,0,0,0.0,0.0,1.0
1635112200.6875,0,0,21.542446752495234,0.0,1.0
1635112201.15625,0,0,0.0,0.0,1.0
1635112201.625,0,0,17.62745608145995,0.0,1.0
1635112202.09375,0,0,0.0,0.0,1.0
1635112202.5625,0,0,21.19241569553548,0.0,1.0
1635112203.03125,0,0,0.0,0.0,1.0
1635112203.5,0,0,17.957577462980357,0.0,1.0
1635112203.96875,0,0,0.0,0.0,1.0
1635112204.4375,0,0,36.83537883500148,0.0,1.0
1635112204.90625,0,0,0.0,0.0,1.0
1635112205.375,0,0,0.0,0.0,1.0
1635112205.84375,0,0,16.376992809329604,0.0,1.0
1635112206.3125,0,0,0.0,0.0,1.0
1635112206.78125,0,0,17.7124619295942,0.0,1.0
1635112207.25,0,0,0.0,0.0,1.0
1635112207.71875,0,0,19.5578572741364,0.0,1.0
1635112208.1875,0,0,20.535202486370824,0.0,1.0
1635112208.65625,0,0,0.0,0.0,1.0
1635112209.125,0,0,18.69509838105756,0.0,1.0
1635112209.59375,0,0,0.0,0.0,1.0
1635112210.0625,0,0,18.904009677435454,0.0,1.0
1635112210.53125,0,0,0.0,0.0,1.0
1635112211.0,0,0,24.845323528901716,0.0,1.0
1635112211.46875,0,0,0.0,0.0,1.0
1635112211.9375,0,0,18.95424671160277,0.0,1.0
1635112212.40625,0,0,0.0,0.0,1.0
1635112212.875,0,0,24.55677582087693,0.0,1.0
1635112213.34375,0,0,-3.690658744013273,0.0,1.0
1635112213.8125,0,0,10.681973950299968,0.0,1.0
1635112214.28125,0,0,37.76146302866585,0.0,1.0
1635112214.75,0,0,0.0,0.0,1.0
1635112215.21875,0,0,0.0,0.0,1.0
1635112215.6875,0,0,21.61877374616062,0.0,1.0
1635112216.15625,0,0,22.349077274639605,0.0,1.0
1635112216.625,0,0,0.0,0.0,1.0
1635112217.09375,0,0,21.539647459155166,0.0,1.0
1635112217.5625,0,0,16.916181838935653,0.0,1.0
1635112218.03125,0,0,18.21052285064459,0.0,1.0
1635112218.5,0,0,20.956893776620998,0.0,1.0
1635112218.96875,0,0,0.0,0.0,1.0
1635112219.4375,0,0,17.65347221514701,0.0,1.0
1635112219.90625,0,0,18.26708268447382,0.0,1.0
1635112220.375,0,0,0.0,0.0,1.0
1635112220.84375,0,0,18.70395007740373,0.0,1.0
1635112221.3125,0,0,0.0,0.0,1.0
1635112221.78125,0,0,15.365317399268106,0.0,1.0
1635112222.25,0,0,0.0,0.0,1.0
1635112222.71875,0,0,19.485068430031713,0.0,1.0
1635112223.1875,0,0,15.65786285670829,0.0,1.0
1635112223.65625,0,0,0.0,0.0,1.0
1635112224.125,0,0,16.155762609879776,0.0,1.0
1635112224.59375,0,0,0.0,0.0,1.0
1635112225.0625,0,0,14.611576955567328,0.0,1.0
1635112225.53125,0,0,0.0,0.0,1.0
1635112226.0,0,0,14.83179310457421,0.0,1.0
1635112226.46875,0,0,0.0,0.0,1.0
1635112226.9375,0,0,15.696555745138172,0.0,1.0
1635112227.40625,0,0,17.86411012499342,0.0,1.0
1635112227.875,0,0,0.0,0.0,1.0
1635112228.34375,0,0,0.0,0.0,1.0
1635112228.8125,0,0,17.792901276632392,0.0,1.0
1635112229.28125,0,0,14.898557111914743,0.0,1.0
1635112229.75,0,0,0.0,0.0,1.0
1635112230.21875,0,0,16.69864637446237,0.0,1.0
1635112230.6875,0,0,0.0,0.0,1.0
1635112231.15625,0,0,22.579943891704918,0.0,1.0
1635112231.625,0,0,0.0,0.0,1.0
1635112232.09375,0,0,21.662722359484352,0.0,1.0
1635112232.5625,0,0,22.32200834047856,0.0,1.0
1635112233.03125,0,0,0.0,0.0,1.0
1635112233.5,0,0,18.895648988447522,0.0,1.0
1635112233.96875,0,0,0.0,0.0,1.0
1635112234.4375,0,0,21.241319127700205,0.0,1.0
1635112234.90625,0,0,0.0,0.0,1.0
1635112235.375,0,0,22.86795008259421,0.0,1.0
1635112235.84375,0,0,20.553098771430726,0.0,1.0
1635112236.3125,0,0,0.0,0.0,1.0
1635112236.78125,0,0,19.968770691069757,0.0,1.0
1635112237.25,0,0,0.0,0.0,1.0
1635112237.71875,0,0,19.92031509784999,0.0,1.0
1635112238.1875,0,0,0.0,0.0,1.0
1635112238.65625,0,0,19.753397538575147,0.0,1.0
1635112239.125,0,0,0.0,0.0,1.0
1635112239.59375,0,0,19.80276036632545,0.0,1.0
1635112240.0625,0,0,20.457779171101656,0.0,1.0
1635112240.53125,0,0,0.0,0.0,1.0
1635112241.0,0,0,17.442925268949015,0.0,1.0
1635112241.46875,0,0,0.0,0.0,1.0
1635112241.9375,0,0,20.06320708803221,0.0,1.0
1635112242.40625,0,0,0.0,0.0,1.0
1635112242.875,0,0,20.07860785327496,0.0,1.0
1635112243.34375,0,0,0.0,0.0,1.0
1635112243.8125,0,0,23.450978131778285,0.0,1.0
1635112244.28125,0,0,0.0,0.0,1.0
1635112244.75,0,0,16.45784188138763,0.0,1.0
1635112245.21875,0,0,27.873125137667586,0.0,1.0
1635112245.6875,0,0,0.0,0.0,1.0
1635112246.15625,0,0,21.53706771329372,0.0,1.0
1635112246.625,0,0,0.0,0.0,1.0
1635112247.09375,0,0,20.28528686924215,0.0,1.0
1635112247.5625,0,0,0.0,0.0,1.0
1635112248.03125,0,0,17.07606985215908,0.0,1.0
1635112248.5,0,0,0.0,0.0,1.0
1635112248.96875,0,0,21.312611290976356,0.0,1.0
1635112249.4375,0,0,34.69479579177834,0.0,1.0
1635112249.90625,0,0,26.6120438777404,0.0,1.0
1635112250.375,0,0,0.0,0.0,1.0
1635112250.84375,0,0,0.0,0.0,1.0
1635112251.3125,0,0,16.056404664589913,0.0,1.0
1635112251.78125,0,0,0.0,0.0,1.0
1635112252.25,0,0,19.645701178870773,0.0,1.0
1635112252.71875,0,0,0.0,0.0,1.0
1635112253.1875,0,0,18.59147732407358,0.0,1.0
1635112253.65625,0,0,0.0,0.0,1.0
1635112254.125,0,0,17.405542705424136,0.0,1.0
1635112254.59375,0,0,19.519075387008037,0.0,1.0
1635112255.0625,0,0,0.0,0.0,1.0
1635112255.53125,0,0,19.47386383412302,0.0,1.0
1635112256.0,0,0,0.0,0.0,1.0
1635112256.46875,0,0,19.435298896866318,0.0,1.0
1635112256.9375,0,0,13.605297890879147,0.0,1.0
1635112257.40625,0,0,0.0,0.0,1.0
1635112257.875,0,0,23.494536169801535,0.0,1.0
1635112258.34375,0,0,0.0,0.0,1.0
1635112258.8125,0,0,18.88976852152364,0.0,1.0
1635112259.28125,0,0,0.0,0.0,1.0
1635112259.75,0,0,18.030931284310267,0.0,1.0
1635112260.21875,0,0,0.0,0.0,1.0
1635112260.6875,0,0,16.54543450323144,0.0,1.0
1635112261.15625,0,0,16.666204439958744,0.0,1.0
1635112261.625,0,0,16.073523781814615,0.0,1.0
1635112262.09375,0,0,20.565533859175446,0.0,1.0
1635112262.5625,0,0,0.0,0.0,1.0
1635112263.03125,0,0,18.86055454095289,0.0,1.0
1635112263.5,0,0,0.0,0.0,1.0
1635112263.96875,0,0,18.991964411710125,0.0,1.0
1635112264.4375,0,0,0.0,0.0,1.0
1635112264.90625,0,0,20.506370506288672,0.0,1.0
1635112265.375,0,0,17.76298520501733,0.0,1.0
1635112265.84375,0,0,18.16676216182347,0.0,1.0
1635112266.3125,0,0,18.760090402238465,0.0,1.0
1635112266.78125,0,0,0.0,0.0,1.0
1635112267.25,0,0,17.661426896836527,0.0,1.0
1635112267.71875,0,0,0.0,0.0,1.0
1635112268.1875,0,0,32.19387120535362,0.0,1.0
1635112268.65625,0,0,19.432670813084385,0.0,1.0
1635112269.125,0,0,20.04213952452356,0.0,1.0
1635112269.59375,0,0,22.184215984166336,0.0,1.0
1635112270.0625,0,0,0.0,0.0,1.0
1635112270.53125,0,0,20.006544770897253,0.0,1.0
1635112271.0,0,0,0.0,0.0,1.0
1635112271.46875,0,0,16.19803670756619,0.0,1.0
1635112271.9375,0,0,11.485167335674197,0.0,1.0
1635112272.40625,0,0,16.272763904941446,0.0,1.0
1635112272.875,0,0,19.4878104219826,0.0,1.0
1635112273.34375,0,0,18.725487940272536,0.0,1.0
1635112273.8125,0,0,20.38548074897678,0.0,1.0
1635112274.28125,0,0,0.0,0.0,1.0
1635112274.75,0,0,17.9868853190681,0.0,1.0
1635112275.21875,0,0,0.0,0.0,1.0
1635112275.6875,0,0,46.91770268857141,0.0,1.0
1635112276.15625,0,0,0.0,0.0,1.0
1635112276.625,0,0,0.0,0.0,1.0
1635112277.09375,0,0,38.81770169111171,0.0,1.0
1635112277.5625,0,0,72.06181157837457,0.0,1.0
1635112278.03125,0,0,35.35692166420005,0.0,1.0
1635112278.5,0,0,35.023568005906796,0.0,1.0
1635112278.96875,0,0,28.730750351268302,0.0,1.0
1635112279.4375,0,0,9.002345055858626,0.0,1.0
1635112279.90625,0,0,0.5279210366658311,0.0,1.0
1635112280.375,0,0,16.268389503534998,0.0,1.0
1635112280.84375,0,0,-1.7582183276529186,0.0,1.0
1635112281.3125,0,0,57.799055362477155,0.0,1.0
1635112281.78125,0,0,53.73320622889675,0.0,1.0
1635112282.25,0,0,100.64091769893128,0.0,1.0
1635112282.71875,0,0,187.17404005175095,0.0,1.0
1635112283.1875,0,0,8.122224589044075,0.0,1.0
1635112283.65625,0,0,205.59572537967776,0.0,1.0
1635112284.125,0,0,-2.197749783673049,0.0,1.0
1635112284.59375,0,0,21.87905737408298,0.0,1.0
1635112285.0625,0,0,45.698737012814966,0.0,1.0
1635112285.53125,0,0,28.541199660265793,0.0,1.0
1635112286.0,0,0,17.015967796452237,0.0,1.0
1635112286.46875,0,0,14.219422732668422,0.0,1.0
1635112286.9375,0,0,0.0,0.0,1.0
1635112287.40625,0,0,70.59210108744251,0.0,1.0
1635112287.875,0,0,0.0,0.0,1.0
1635112288.34375,0,0,23.03192003284232,0.0,1.0
1635112288.8125,0,0,-2.2529331045630463,0.0,1.0
1635112289.28125,0,0,62.748161918465506,0.0,1.0
1635112289.75,0,0,0.0,0.0,1.0
1635112290.21875,0,0,44.423556372022325,0.0,1.0
1635112290.6875,0,0,13.55695669639725,0.0,1.0
1635112291.15625,0,0,-0.6099139569150658,0.0,1.0
1635112291.625,0,0,43.51959531943965,0.0,1.0
1635112292.09375,0,0,15.197040079895038,0.0,1.0
1635112292.5625,0,0,-13.081902549672076,0.0,1.0
1635112293.03125,0,0,38.69207334928442,0.0,1.0
1635112293.5,0,0,0.0,0.0,1.0
1635112293.96875,0,0,108.12048015608974,0.0,1.0
1635112294.4375,0,0,-1.2702077764793172,0.0,1.0
1635112294.90625,0,0,27.150634715633334,0.0,1.0
1635112295.375,0,0,0.0,0.0,1.0
1635112295.84375,0,0,2.8105736121917744,0.0,1.0
1635112296.3125,0,0,40.065340018319866,0.0,1.0
1635112296.78125,0,0,0.0,0.0,1.0
1635112297.25,0,0,25.223232034791657,0.0,1.0
1635112297.71875,0,0,0.0,0.0,1.0
1635112298.1875,0,0,14.426892681015847,0.0,1.0
1635112298.65625,0,0,15.401160805390699,0.0,1.0
1635112299.125,0,0,0.0,0.0,1.0
1635112299.59375,0,0,12.856583803368272,0.0,1.0
1635112300.0625,0,0,0.0,0.0,1.0
1635112300.53125,0,0,16.98217714513399,0.0,1.0
1635112301.0,0,0,13.195144803429384,0.0,1.0
1635112301.46875,0,0,0.0,0.0,1.0
1635112301.9375,0,0,16.393345615664604,0.0,1.0
1635112302.40625,0,0,-16.378791708570187,0.0,1.0
1635112302.875,0,0,31.296572628056477,0.0,1.0
1635112303.34375,0,0,0.0,0.0,1.0
1635112303.8125,0,0,22.045956236001494,0.0,1.0
1635112304.28125,0,0,10.54822235618499,0.0,1.0
1635112304.75,0,0,0.0,0.0,1.0
1635112305.21875,0,0,19.65557584030883,0.0,1.0
1635112305.6875,0,0,0.0,0.0,1.0
1635112306.15625,0,0,15.59421815783281,0.0,1.0
1635112306.625,0,0,19.764748294388895,0.0,1.0
1635112307.09375,0,0,0.0,0.0,1.0
1635112307.5625,0,0,19.138381478369656,0.0,1.0
1635112308.03125,0,0,0.0,0.0,1.0
1635112308.5,0,0,14.539683078871354,0.0,1.0
1635112308.96875,0,0,0.0,0.0,1.0
1635112309.4375,0,0,0.0,0.0,1.0
1635112309.90625,0,0,22.29183342147097,0.0,1.0
1635112310.375,0,0,0.0,0.0,1.0
1635112310.84375,0,0,30.62490832559902,0.0,1.0
1635112311.3125,0,0,11.432912472293687,0.0,1.0
1635112311.78125,0,0,0.0,0.0,1.0
1635112312.25,0,0,25.592785130784755,0.0,1.0
1635112312.71875,0,0,0.0,0.0,1.0
1635112313.1875,0,0,28.374022673845353,0.0,1.0
1635112313.65625,0,0,0.0,0.0,1.0
1635112314.125,0,0,18.470803402735058,0.0,1.0
1635112314.59375,0,0,0.0,0.0,1.0
1635112315.0625,0,0,16.957100619410568,0.0,1.0
1635112315.53125,0,0,0.0,0.0,1.0
1635112316.0,0,0,12.201477295592383,0.0,1.0
1635112316.46875,0,0,0.0,0.0,1.0
1635112316.9375,0,0,13.03525069239157,0.0,1.0
1635112317.40625,0,0,0.0,0.0,1.0
1635112317.875,0,0,14.022014680224027,0.0,1.0
1635112318.34375,0,0,0.0,0.0,1.0
1635112318.8125,0,0,10.450514289080079,0.0,1.0
1635112319.28125,0,0,17.338130362068817,0.0,1.0
1635112319.75,0,0,15.97923395608794,0.0,1.0
1635112320.21875,0,0,0.0,0.0,1.0
1635112320.6875,0,0,14.44729341807896,0.0,1.0
1635112321.15625,0,0,19.016388793492013,0.0,1.0
1635112321.625,0,0,0.0,0.0,1.0
1635112322.09375,0,0,17.657688917423222,0.0,1.0
1635112322.5625,0,0,0.0,0.0,1.0
1635112323.03125,0,0,21.316770989443196,0.0,1.0
1635112323.5,0,0,0.0,0.0,1.0
1635112323.96875,0,0,20.516364648384542,0.0,1.0
1635112324.4375,0,0,22.353733863707927,0.0,1.0
1635112324.90625,0,0,23.980355966866707,0.0,1.0
1635112325.375,0,0,19.160670576587677,0.0,1.0
1635112325.84375,0,0,17.9352202792512,0.0,1.0
1635112326.3125,0,0,24.223071573126937,0.0,1.0
1635112326.78125,0,0,0.0,0.0,1.0
1635112327.25,0,0,18.002319260910234,0.0,1.0
1635112327.71875,0,0,0.0,0.0,1.0
1635112328.1875,0,0,28.393907879776567,0.0,1.0
1635112328.65625,0,0,0.0,0.0,1.0
1635112329.125,0,0,21.49718518689794,0.0,1.0
1635112329.59375,0,0,20.889606280181845,0.0,1.0
1635112330.0625,0,0,25.130183738088096,0.0,1.0
1635112330.53125,0,0,19.441095041697,0.0,1.0
1635112331.0,0,0,37.15764553512658,0.0,1.0
1635112331.46875,0,0,0.0,0.0,1.0
1635112331.9375,0,0,30.184945925551926,0.0,1.0
1635112332.40625,0,0,16.94730608964599,0.0,1.0
1635112332.875,0,0,0.0,0.0,1.0
1635112333.34375,0,0,26.235987913424186,0.0,1.0
1635112333.8125,0,0,0.0,0.0,1.0
1635112334.28125,0,0,0.0,0.0,1.0
1635112334.75,0,0,0.0,0.0,1.0
1635112335.21875,0,0,34.037183893542256,0.0,1.0
1635112335.6875,0,0,34.707126325022465,0.0,1.0
1635112336.15625,0,0,0.0,0.0,1.0
1635112336.625,0,0,21.575825514828704,0.0,1.0
1635112337.09375,0,0,5.2114892421331716,0.0,1.0
1635112337.5625,0,0,24.391213690468255,0.0,1.0
1635112338.03125,0,0,0.0,0.0,1.0
1635112338.5,0,0,23.62854410486648,0.0,1.0
1635112338.96875,0,0,0.0,0.0,1.0
1635112339.4375,0,0,22.253638871288757,0.0,1.0
1635112339.90625,0,0,22.730272809558347,0.0,1.0
1635112340.375,0,0,0.0,0.0,1.0
1635112340.84375,0,0,26.240876213388347,0.0,1.0
1635112341.3125,0,0,0.0,0.0,1.0
1635112341.78125,0,0,10.219512395212,0.0,1.0
1635112342.25,0,0,0.0,0.0,1.0
1635112342.71875,0,0,0.0,0.0,1.0
1635112343.1875,0,0,0.0,0.0,1.0
1635112343.65625,0,0,26.857136948971675,0.0,1.0
1635112344.125,0,0,0.0,0.0,1.0
1635112344.59375,0,0,0.0,0.0,1.0
1635112345.0625,0,0,27.68042800807328,0.0,1.0
1635112345.53125,0,0,0.0,0.0,1.0
1635112346.0,0,0,29.079737080059747,0.0,1.0
1635112346.46875,0,0,0.0,0.0,1.0
1635112346.9375,0,0,24.11919270057759,0.0,1.0
1635112347.40625,0,0,-8.03625549415681,0.0,1.0
1635112347.875,0,0,102.35067853721056,0.0,1.0
1635112348.34375,0,0,0.43487596140568857,0.0,1.0
1635112348.8125,0,0,0.0,0.0,1.0
1635112349.28125,0,0,115.07740554167422,0.0,2.0
1635112349.75,0,0,9.721084322371428,0.0,2.0
1635112350.21875,0,0,-15.373623703265974,0.0,2.0
1635112350.6875,0,0,0.0,0.0,2.0
1635112351.15625,0,0,361.4356010980789,0.0,2.0
1635112351.625,0,0,0.0,0.0,2.0
1635112352.09375,0,0,111.64244601348497,0.0,2.0
1635112352.5625,0,0,28.278167229410514,0.0,2.0
1635112353.03125,0,0,-26.707053316821845,0.0,2.0
1635112353.5,0,0,35.29331813364739,0.0,2.0
1635112353.96875,0,0,29.481002533028825,0.0,2.0
1635112354.4375,0,0,0.0,0.0,2.0
1635112354.90625,0,0,23.10782970660145,0.0,2.0
1635112355.375,0,0,18.950106807931764,0.0,2.0
1635112355.84375,0,0,0.0,0.0,2.0
1635112356.3125,0,0,56.99076367445134,0.0,2.0
1635112356.78125,0,0,45.31716527249164,0.0,2.0
1635112357.25,0,0,-20.77987453830051,0.0,2.0
1635112357.71875,0,0,210.54689252849252,0.0,2.0
1635112358.1875,0,0,0.0,0.0,2.0
1635112358.65625,0,0,28.369097257993733,0.0,2.0
1635112359.125,0,0,0.0,0.0,2.0
1635112359.59375,0,0,0.0,0.0,2.0
1635112360.0625,0,0,26.87603759470845,0.0,2.0
1635112360.53125,0,0,11.797743404630923,0.0,2.0
1635112361.0,0,0,102.64239621071916,0.0,2.0
1635112361.46875,0,0,0.0,0.0,2.0
1635112361.9375,0,0,0.0,0.0,2.0
1635112362.40625,0,0,64.01571305224671,0.0,2.0
1635112362.875,0,0,0.0,0.0,2.0
1635112363.34375,0,0,42.952272636911644,0.0,2.0
1635112363.8125,0,0,7.533928674308197,0.0,2.0
1635112364.28125,0,0,-1.7271204767397417,0.0,2.0
1635112364.75,0,0,10.368424778170812,0.0,2.0
1635112365.21875,0,0,0.0,0.0,2.0
1635112365.6875,0,0,19.653293800699362,0.0,2.0
1635112366.15625,0,0,0.0,0.0,2.0
1635112366.625,0,0,54.401137088834275,0.0,2.0
1635112367.09375,0,0,40.94811876509193,0.0,2.0
1635112367.5625,0,0,0.0,0.0,2.0
1635112368.03125,0,0,-44.60050669665845,0.0,2.0
1635112368.5,0,0,249.0404157968477,0.0,2.0
1635112368.96875,0,0,0.0,0.0,2.0
1635112369.4375,0,0,60.241755359336615,0.0,2.0
1635112369.90625,0,0,70.2005767420602,0.0,2.0
1635112370.375,0,0,-0.5183720403884389,0.0,2.0
1635112370.84375,0,0,10.65612959752681,0.0,2.0
1635112371.3125,0,0,0.0,0.0,2.0
1635112371.78125,0,0,0.0,0.0,2.0
1635112372.25,0,0,16.52899388750688,0.0,2.0
1635112372.71875,0,0,0.0,0.0,2.0
1635112373.1875,0,0,20.670984046136876,0.0,2.0
1635112373.65625,0,0,13.825355474043883,0.0,2.0
1635112374.125,0,0,14.207238142545446,0.0,2.0
1635112374.59375,0,0,14.15006414366092,0.0,2.0
1635112375.0625,0,0,0.0,0.0,2.0
1635112375.53125,0,0,17.790492237989422,0.0,2.0
1635112376.0,0,0,0.0,0.0,2.0
1635112376.46875,0,0,14.350699770422274,0.0,2.0
1635112376.9375,0,0,0.0,0.0,2.0
1635112377.40625,0,0,18.576297100884286,0.0,2.0
1635112377.875,0,0,21.769972284088418,0.0,2.0
1635112378.34375,0,0,0.0,0.0,2.0
1635112378.8125,0,0,115.14700780366606,0.0,2.0
1635112379.28125,0,0,335.75446981822444,0.0,2.0
1635112379.75,0,0,-6.090173858498445,0.0,2.0
1635112380.21875,0,0,194.84548148286586,0.0,2.0
1635112380.6875,0,0,79.54174524171647,0.0,2.0
1635112381.15625,0,0,62.72951065498606,0.0,2.0
1635112381.625,0,0,157.80970572681983,0.0,2.0
1635112382.09375,0,0,-130.39228048177523,0.0,2.0
1635112382.5625,0,0,201.29324566120007,0.0,2.0
1635112383.03125,0,0,0.0,0.0,2.0
1635112383.5,0,0,-99.3902433647737,0.0,2.0
1635112383.96875,0,0,173.5386931037272,0.0,2.0
1635112384.4375,0,0,68.83231186278644,0.0,2.0
1635112384.90625,0,0,7.817514070934487,0.0,2.0
1635112385.375,0,0,209.39399934457637,0.0,2.0
1635112385.84375,0,0,0.0,0.0,2.0
1635112386.3125,0,0,108.072169545216,0.0,2.0
1635112386.78125,0,0,67.18144871012737,0.0,2.0
1635112387.25,0,0,9.37649317951159,0.0,2.0
1635112387.71875,0,0,8.09453650231408,0.0,2.0
1635112388.1875,0,0,49.471875250709004,0.0,2.0
1635112388.65625,0,0,0.0,0.0,2.0
1635112389.125,0,0,28.34678143893412,0.0,2.0
1635112389.59375,0,0,0.0,0.0,2.0
1635112390.0625,0,0,22.313216109224815,0.0,2.0
1635112390.53125,0,0,0.0,0.0,2.0
1635112391.0,0,0,44.67573404163798,0.0,2.0
1635112391.46875,0,0,0.0,0.0,2.0
1635112391.9375,0,0,295.4991038763342,0.0,2.0
1635112392.40625,0,0,-10.11820094375165,0.0,2.0
1635112392.875,0,0,-64.63791158621517,0.0,2.0
1635112393.34375,0,0,0.0,0.0,2.0
1635112393.8125,0,0,0.0,0.0,2.0
1635112394.28125,0,0,181.16144066248418,0.0,2.0
1635112394.75,0,0,213.524899162726,0.0,2.0
1635112395.21875,0,0,0.0,0.0,2.0
1635112395.6875,0,0,245.81397572094443,0.0,2.0
1635112396.15625,0,0,0.0,0.0,2.0
1635112396.625,0,0,185.23123080116224,0.0,2.0
1635112397.09375,0,0,0.0,0.0,2.0
1635112397.5625,0,0,168.44825080763863,0.0,2.0
1635112398.03125,0,0,-71.20594529901223,0.0,2.0
1635112398.5,0,0,128.46383416276856,0.0,2.0
1635112398.96875,0,0,67.21058444611096,0.0,2.0
1635112399.4375,0,0,0.0,0.0,2.0
1635112399.90625,0,0,96.04039214720916,0.0,2.0
1635112400.375,0,0,0.0,0.0,2.0
1635112400.84375,0,0,112.91049646680828,0.0,2.0
1635112401.3125,0,0,77.52764598779589,0.0,2.0
1635112401.78125,0,0,-30.835008132874357,0.0,2.0
1635112402.25,0,0,74.05227561246981,0.0,2.0
1635112402.71875,0,0,4.515575435520376,0.0,2.0
1635112403.1875,0,0,60.66326081994299,0.0,2.0
1635112403.65625,0,0,18.783126304989715,0.0,2.0
1635112404.125,0,0,54.80057183878743,0.0,2.0
1635112404.59375,0,0,18.755621196750784,0.0,2.0
1635112405.0625,0,0,45.3156132079555,0.0,2.0
1635112405.53125,0,0,37.36823977403799,0.0,2.0
1635112406.0,0,0,90.65234155090674,0.0,2.0
1635112406.46875,0,0,50.462886299039226,0.0,2.0
1635112406.9375,0,0,21.905395630214926,0.0,2.0
1635112407.40625,0,0,-3.598539524469809,0.0,2.0
1635112407.875,0,0,35.32050552643702,0.0,2.0
1635112408.34375,0,0,67.11269988055165,0.0,2.0
1635112408.8125,0,0,-50.01935338504453,0.0,2.0
1635112409.28125,0,0,69.34176396150498,0.0,2.0
1635112409.75,0,0,46.349768772498436,0.0,2.0
1635112410.21875,0,0,0.0,0.0,2.0
1635112410.6875,0,0,0.0,0.0,2.0
1635112411.15625,0,0,89.45451410033034,0.0,2.0
1635112411.625,0,0,47.468160881269895,0.0,2.0
1635112412.09375,0,0,78.61914550131587,0.0,2.0
1635112412.5625,0,0,38.42125117239851,0.0,2.0
1635112413.03125,0,0,16.264850872889493,0.0,2.0
1635112413.5,0,0,68.88410177587531,0.0,2.0
1635112413.96875,0,0,0.6766078463508857,0.0,2.0
1635112414.4375,0,0,55.95191016481417,0.0,2.0
1635112414.90625,0,0,56.82550116700382,0.0,2.0
1635112415.375,0,0,0.0,0.0,2.0
1635112415.84375,0,0,114.25105140057897,0.0,2.0
1635112416.3125,0,0,0.0,0.0,2.0
1635112416.78125,0,0,108.59550550202731,0.0,2.0
1635112417.25,0,0,-3.2197230922533415,0.0,2.0
1635112417.71875,0,0,41.03873351758824,0.0,2.0
1635112418.1875,0,0,49.542767702380615,0.0,2.0
1635112418.65625,0,0,61.54241975560855,0.0,2.0
1635112419.125,0,0,-10.501636663058509,0.0,2.0
1635112419.59375,0,0,22.35553761349504,0.0,2.0
1635112420.0625,0,0,69.7897406764255,0.0,2.0
1635112420.53125,0,0,19.659374992173188,0.0,2.0
1635112421.0,0,0,43.47619857098673,0.0,2.0
1635112421.46875,0,0,21.289189948985708,0.0,2.0
1635112421.9375,0,0,72.92280951648016,0.0,2.0
1635112422.40625,0,0,-0.8738630727532699,0.0,2.0
1635112422.875,0,0,68.48313359347667,0.0,2.0
1635112423.34375,0,0,55.772883957261,0.0,2.0
1635112423.8125,0,0,9.484735066890437,0.0,2.0
1635112424.28125,0,0,80.56625217905565,0.0,2.0
1635112424.75,0,0,34.37358316058638,0.0,2.0
1635112425.21875,0,0,114.93883516695004,0.0,2.0
1635112425.6875,0,0,0.0,0.0,2.0
1635112426.15625,0,0,101.26156581154038,0.0,2.0
1635112426.625,0,0,-1.2160043616628018,0.0,2.0
1635112427.09375,0,0,101.24690861644385,0.0,2.0
1635112427.5625,0,0,-6.131542514580425,0.0,2.0
1635112428.03125,0,0,114.86522559719593,0.0,2.0
1635112428.5,0,0,0.0,0.0,2.0
1635112428.96875,0,0,105.640523527196,0.0,2.0
1635112429.4375,0,0,61.48170989556341,0.0,2.0
1635112429.90625,0,0,93.91053907162545,0.0,2.0
1635112430.375,0,0,0.0,0.0,2.0
1635112430.84375,0,0,-25.768137944749956,0.0,2.0
1635112431.3125,0,0,94.49472986579542,0.0,2.0
1635112431.78125,0,0,-25.497120536864273,0.0,2.0
1635112432.25,0,0,99.9886239776558,0.0,2.0
1635112432.71875,0,0,0.0,0.0,2.0
1635112433.1875,0,0,99.54151895943427,0.0,2.0
1635112433.65625,0,0,-34.29505459759704,0.0,2.0
1635112434.125,0,0,90.14600705055507,0.0,2.0
1635112434.59375,0,0,-20.05923873208925,0.0,2.0
1635112435.0625,0,0,85.74970186363305,0.0,2.0
1635112435.53125,0,0,17.637470770515264,0.0,2.0
1635112436.0,0,0,80.81567506703918,0.0,2.0
1635112436.46875,0,0,112.79299659215813,0.0,2.0
1635112436.9375,0,0,-23.777634709560242,0.0,2.0
1635112437.40625,0,0,109.70072178011922,0.0,2.0
1635112437.875,0,0,-32.11167883035536,0.0,2.0
1635112438.34375,0,0,131.400660565804,0.0,2.0
1635112438.8125,0,0,-22.767997685638502,0.0,2.0
1635112439.28125,0,0,113.0069032566003,0.0,2.0
1635112439.75,0,0,0.0,0.0,2.0
1635112440.21875,0,0,99.45150044219093,0.0,2.0
1635112440.6875,0,0,0.0,0.0,2.0
1635112441.15625,0,0,110.58579549727138,0.0,2.0
1635112441.625,0,0,-9.065290868411006,0.0,2.0
1635112442.09375,0,0,93.80387157394127,0.0,2.0
1635112442.5625,0,0,14.514819800022266,0.0,2.0
1635112443.03125,0,0,132.85393031489022,0.0,2.0
1635112443.5,0,0,11.446218491993202,0.0,2.0
1635112443.96875,0,0,71.8905511593533,0.0,2.0
1635112444.4375,0,0,-14.503466735032987,0.0,2.0
1635112444.90625,0,0,74.6369189849535,0.0,2.0
1635112445.375,0,0,21.475606214659877,0.0,2.0
1635112445.84375,0,0,17.342249491762793,0.0,2.0
1635112446.3125,0,0,21.56963200475282,0.0,2.0
1635112446.78125,0,0,24.6325311712935,0.0,2.0
1635112447.25,0,0,24.651496807842268,0.0,2.0
1635112447.71875,0,0,0.0,0.0,2.0
1635112448.1875,0,0,25.061497391471438,0.0,2.0
1635112448.65625,0,0,0.0,0.0,2.0
1635112449.125,0,0,26.695781430896687,0.0,2.0
1635112449.59375,0,0,0.0,0.0,2.0
1635112450.0625,0,0,8.056812345222594,0.0,2.0
1635112450.53125,0,0,37.87110745470156,0.0,2.0
1635112451.0,0,0,0.0,0.0,2.0
1635112451.46875,0,0,127.39964223853947,0.0,2.0
1635112451.9375,0,0,-18.19675046890441,0.0,2.0
1635112452.40625,0,0,-2.085267468120301,0.0,2.0
1635112452.875,0,0,30.18330476705828,0.0,2.0
1635112453.34375,0,0,0.0,0.0,2.0
1635112453.8125,0,0,24.485319005980376,0.0,2.0
1635112454.28125,0,0,26.397811249922103,0.0,2.0
1635112454.75,0,0,25.720667937194108,0.0,2.0
1635112455.21875,0,0,14.751523165486153,0.0,2.0
1635112455.6875,0,0,10.873633699165309,0.0,2.0
1635112456.15625,0,0,25.140891056978237,0.0,2.0
1635112456.625,0,0,18.21462590933962,0.0,2.0
1635112457.09375,0,0,32.30160900138495,0.0,2.0
1635112457.5625,0,0,12.070572280600855,0.0,2.0
1635112458.03125,0,0,33.881613215068924,0.0,2.0
1635112458.5,0,0,0.0,0.0,2.0
1635112458.96875,0,0,21.548855648039613,0.0,2.0
1635112459.4375,0,0,23.878773534069005,0.0,2.0
1635112459.90625,0,0,30.55641225880373,0.0,2.0
1635112460.375,0,0,-7.237293284025339,0.0,2.0
1635112460.84375,0,0,35.03284250660033,0.0,2.0
1635112461.3125,0,0,0.0,0.0,2.0
1635112461.78125,0,0,13.227669335142576,0.0,2.0
1635112462.25,0,0,0.0,0.0,2.0
1635112462.71875,0,0,26.56984955763722,0.0,2.0
1635112463.1875,0,0,0.0,0.0,2.0
1635112463.65625,0,0,19.79463730630028,0.0,2.0
1635112464.125,0,0,15.159132264952518,0.0,2.0
1635112464.59375,0,0,24.905060334653612,0.0,2.0
1635112465.0625,0,0,0.0,0.0,2.0
1635112465.53125,0,0,28.14882622481763,0.0,2.0
1635112466.0,0,0,39.96587534508708,0.0,2.0
1635112466.46875,0,0,5.316948217142063,0.0,2.0
1635112466.9375,0,0,0.0,0.0,2.0
1635112467.40625,0,0,0.0,0.0,2.0
1635112467.875,0,0,20.132656489651893,0.0,2.0
1635112468.34375,0,0,0.0,0.0,2.0
1635112468.8125,0,0,20.385773459412917,0.0,2.0
1635112469.28125,0,0,19.681879418195827,0.0,2.0
1635112469.75,0,0,31.120949833738223,0.0,2.0
1635112470.21875,0,0,0.0,0.0,2.0
1635112470.6875,0,0,18.607367677960365,0.0,2.0
1635112471.15625,0,0,0.0,0.0,2.0
1635112471.625,0,0,16.966677088739324,0.0,2.0
1635112472.09375,0,0,5.62485065368705,0.0,2.0
1635112472.5625,0,0,37.97499192495029,0.0,2.0
1635112473.03125,0,0,-9.407037517224959,0.0,2.0
1635112473.5,0,0,37.61732042186476,0.0,2.0
1635112473.96875,0,0,-16.284363888714758,0.0,2.0
1635112474.4375,0,0,0.0,0.0,2.0
1635112474.90625,0,0,20.509848567742004,0.0,2.0
1635112475.375,0,0,11.716392525529294,0.0,2.0
1635112475.84375,0,0,29.149530049442696,0.0,2.0
1635112476.3125,0,0,14.19017511031032,0.0,2.0
1635112476.78125,0,0,22.381886448732324,0.0,2.0
1635112477.25,0,0,-0.532310899864867,0.0,2.0
1635112477.71875,0,0,19.640519902901683,0.0,2.0
1635112478.1875,0,0,0.0,0.0,2.0
1635112478.65625,0,0,7.011235724389071,0.0,2.0
1635112479.125,0,0,0.0,0.0,2.0
1635112479.59375,0,0,36.75700260551246,0.0,2.0
1635112480.0625,0,0,-25.23674367075182,0.0,2.0
1635112480.53125,0,0,27.056663816369692,0.0,2.0
1635112481.0,0,0,0.0,0.0,2.0
1635112481.46875,0,0,21.658354155186977,0.0,2.0
1635112481.9375,0,0,-7.676015695676314,0.0,2.0
1635112482.40625,0,0,6.868568441966004,0.0,2.0
1635112482.875,0,0,20.337862717501093,0.0,2.0
1635112483.34375,0,0,0.0,0.0,2.0
1635112483.8125,0,0,0.0,0.0,2.0
1635112484.28125,0,0,24.731007182966906,0.0,2.0
1635112484.75,0,0,-20.252915247294744,0.0,2.0
1635112485.21875,0,0,27.233447197325585,0.0,2.0
1635112485.6875,0,0,12.187222977618488,0.0,2.0
1635112486.15625,0,0,10.594246619289256,0.0,2.0
1635112486.625,0,0,0.0,0.0,2.0
1635112487.09375,0,0,21.899277590510753,0.0,2.0
1635112487.5625,0,0,0.0,0.0,2.0
1635112488.03125,0,0,43.43101552129296,0.0,2.0
1635112488.5,0,0,0.0,0.0,2.0
1635112488.96875,0,0,47.832310652891096,0.0,2.0
1635112489.4375,0,0,20.136863346992126,0.0,2.0
1635112489.90625,0,0,19.96721153156482,0.0,2.0
1635112490.375,0,0,25.405284128834627,0.0,2.0
1635112490.84375,0,0,4.6450028778852674,0.0,2.0
1635112491.3125,0,0,20.991360149663407,0.0,2.0
1635112491.78125,0,0,17.836917607003457,0.0,2.0
1635112492.25,0,0,4.890927714186705,0.0,2.0
1635112492.71875,0,0,33.46881017461802,0.0,2.0
1635112493.1875,0,0,41.98249435701397,0.0,2.0
1635112493.65625,0,0,0.38376520228647537,0.0,2.0
1635112494.125,0,0,29.054907593812267,0.0,2.0
1635112494.59375,0,0,0.0,0.0,2.0
1635112495.0625,0,0,20.243049629114328,0.0,2.0
1635112495.53125,0,0,0.0,0.0,2.0
1635112496.0,0,0,16.722803714669464,0.0,2.0
1635112496.46875,0,0,12.883271023729716,0.0,2.0
1635112496.9375,0,0,0.0,0.0,2.0
1635112497.40625,0,0,50.75365708532883,0.0,2.0
1635112497.875,0,0,0.0,0.0,2.0
1635112498.34375,0,0,146.79938206623993,0.0,2.0
1635112498.8125,0,0,24.64047965475342,0.0,2.0
1635112499.28125,0,0,127.89947018729542,0.0,2.0
1635112499.75,0,0,0.0,0.0,2.0
1635112500.21875,0,0,149.27476167670295,0.0,2.0
1635112500.6875,0,0,-76.34926605899042,0.0,2.0
1635112501.15625,0,0,175.78998982869854,0.0,2.0
1635112501.625,0,0,0.0,0.0,2.0
1635112502.09375,0,0,193.51667427160177,0.0,2.0
1635112502.5625,0,0,146.7384487997155,0.0,2.0
1635112503.03125,0,0,-5.743642269660752,0.0,2.0
1635112503.5,0,0,76.33682644860016,0.0,2.0
1635112503.96875,0,0,0.0,0.0,2.0
1635112504.4375,0,0,149.31682632237124,0.0,2.0
1635112504.90625,0,0,144.80777516157755,0.0,2.0
1635112505.375,0,0,0.0,0.0,2.0
1635112505.84375,0,0,139.40239925265845,0.0,2.0
1635112506.3125,0,0,93.24025618174115,0.0,2.0
1635112506.78125,0,0,131.25132589037725,0.0,2.0
1635112507.25,0,0,0.0,0.0,2.0
1635112507.71875,0,0,117.20897734411065,0.0,2.0
1635112508.1875,0,0,107.24473594812841,0.0,2.0
1635112508.65625,0,0,0.0,0.0,2.0
1635112509.125,0,0,0.0,0.0,2.0
1635112509.59375,0,0,8.96025644503178,0.0,2.0
1635112510.0625,0,0,0.0,0.0,2.0
1635112510.53125,0,0,284.50563678785335,0.0,2.0
1635112511.0,0,0,0.0,0.0,2.0
1635112511.46875,0,0,151.7992490899477,0.0,2.0
1635112511.9375,0,0,0.0,0.0,2.0
1635112512.40625,0,0,98.23612841638085,0.0,2.0
1635112512.875,0,0,130.88507783239535,0.0,2.0
1635112513.34375,0,0,0.0,0.0,2.0
1635112513.8125,0,0,115.2093381646744,0.0,2.0
1635112514.28125,0,0,139.6720760078307,0.0,2.0
1635112514.75,0,0,-40.27418788503981,0.0,2.0
1635112515.21875,0,0,-39.796318936083416,0.0,2.0
1635112515.6875,0,0,4.803078947197502,0.0,2.0
1635112516.15625,0,0,162.3587352186133,0.0,2.0
1635112516.625,0,0,0.0,0.0,2.0
1635112517.09375,0,0,103.67106654644047,0.0,2.0
1635112517.5625,0,0,0.0,0.0,2.0
1635112518.03125,0,0,13.151193785414632,0.0,2.0
1635112518.5,0,0,1.634258328603876,0.0,2.0
1635112518.96875,0,0,40.49777803896475,0.0,2.0
1635112519.4375,0,0,0.0,0.0,2.0
1635112519.90625,0,0,13.127771153894708,0.0,2.0
1635112520.375,0,0,0.0,0.0,2.0
1635112520.84375,0,0,24.604717881621394,0.0,2.0
1635112521.3125,0,0,12.563060225739134,0.0,2.0
1635112521.78125,0,0,0.0,0.0,2.0
1635112522.25,0,0,29.33191503032877,0.0,2.0
1635112522.71875,0,0,30.728067425666705,0.0,2.0
1635112523.1875,0,0,0.0,0.0,2.0
1635112523.65625,0,0,22.591454399566047,0.0,2.0
1635112524.125,0,0,22.874900121401005,0.0,2.0
1635112524.59375,0,0,12.434857363609085,0.0,2.0
1635112525.0625,0,0,0.0,0.0,2.0
1635112525.53125,0,0,5.4306691035215335,0.0,2.0
1635112526.0,0,0,0.0,0.0,2.0
1635112526.46875,0,0,0.0,0.0,2.0
1635112526.9375,0,0,14.312034348019665,0.0,2.0
1635112527.40625,0,0,0.0,0.0,2.0
1635112527.875,0,0,-0.4595802664330254,0.0,2.0
1635112528.34375,0,0,13.961119718045309,0.0,2.0
1635112528.8125,0,0,12.031691948781116,0.0,2.0
1635112529.28125,0,0,0.0,0.0,2.0
1635112529.75,0,0,0.0,0.0,2.0
1635112530.21875,0,0,0.0,0.0,2.0
1635112530.6875,0,0,12.658668548692761,0.0,2.0
1635112531.15625,0,0,0.0,0.0,2.0
1635112531.625,0,0,12.85632858403206,0.0,2.0
1635112532.09375,0,0,0.0,0.0,2.0
1635112532.5625,0,0,25.636643077340892,0.0,2.0
1635112533.03125,0,0,0.0,0.0,2.0
1635112533.5,0,0,21.718186891170614,0.0,2.0
1635112533.96875,0,0,0.0,0.0,2.0
1635112534.4375,0,0,0.0,0.0,2.0
1635112534.90625,0,0,53.25699933341017,0.0,2.0
1635112535.375,0,0,0.0,0.0,2.0
1635112535.84375,0,0,29.047938710731614,0.0,2.0
1635112536.3125,0,0,0.0,0.0,2.0
1635112536.78125,0,0,0.0,0.0,2.0
1635112537.25,0,0,13.766680000015793,0.0,2.0
1635112537.71875,0,0,7.300980633382418,0.0,2.0
1635112538.1875,0,0,14.309599242508334,0.0,2.0
1635112538.65625,0,0,0.0,0.0,2.0
1635112539.125,0,0,23.867784205165208,0.0,2.0
1635112539.59375,0,0,-9.205609170723099,0.0,2.0
1635112540.0625,0,0,-11.778553224632557,0.0,2.0
1635112540.53125,0,0,103.88739518434453,0.0,2.0
1635112541.0,0,0,69.26923652730088,0.0,2.0
1635112541.46875,0,0,12.359442154277671,0.0,2.0
1635112541.9375,0,0,51.46424468698966,0.0,2.0
1635112542.40625,0,0,0.0,0.0,2.0
1635112542.875,0,0,0.0,0.0,2.0
1635112543.34375,0,0,29.512311159580715,0.0,2.0
1635112543.8125,0,0,4.578927692433537,0.0,2.0
1635112544.28125,0,0,-2.2997847601319577,0.0,2.0
1635112544.75,0,0,87.90428684558096,0.0,2.0
1635112545.21875,0,0,123.21956194458795,0.0,2.0
1635112545.6875,0,0,0.0,0.0,2.0
1635112546.15625,0,0,13.886925530128646,0.0,2.0
1635112546.625,0,0,0.0,0.0,2.0
1635112547.09375,0,0,0.0,0.0,2.0
1635112547.5625,0,0,0.0,0.0,2.0
1635112548.03125,0,0,10.814024712884104,0.0,3.0
1635112548.5,0,0,4.799139384833957,0.0,3.0
1635112548.96875,0,0,0.0,0.0,3.0
1635112549.4375,0,0,99.77535013227555,0.0,3.0
1635112549.90625,0,0,0.0,0.0,3.0
1635112550.375,0,0,8.280117975850896,0.0,3.0
1635112550.84375,0,0,243.656454512588,0.0,3.0
1635112551.3125,0,0,0.0,0.0,3.0
1635112551.78125,0,0,3.3033773498401633,0.0,3.0
1635112552.25,0,0,0.0,0.0,3.0
1635112552.71875,0,0,88.11530386006135,0.0,3.0
1635112553.1875,0,0,0.0,0.0,3.0
1635112553.65625,0,0,0.0,0.0,3.0
1635112554.125,0,0,68.80577367754213,0.0,3.0
1635112554.59375,0,0,0.0,0.0,3.0
1635112555.0625,0,0,11.069842141282164,0.0,3.0
1635112555.53125,0,0,0.0,0.0,3.0
1635112556.0,0,0,23.319076132189764,0.0,3.0
1635112556.46875,0,0,23.940557423689693,0.0,3.0
1635112556.9375,0,0,0.0,0.0,3.0
1635112557.40625,0,0,20.764729346376278,0.0,3.0
1635112557.875,0,0,5.609277609280946,0.0,3.0
1635112558.34375,0,0,51.71259753760917,0.0,3.0
1635112558.8125,0,0,88.57416792278543,0.0,3.0
1635112559.28125,0,0,0.0,0.0,3.0
1635112559.75,0,0,44.3749477625012,0.0,3.0
1635112560.21875,0,0,0.0,0.0,3.0
1635112560.6875,0,0,75.91265782309631,0.0,3.0
1635112561.15625,0,0,-17.980460523781346,0.0,3.0
1635112561.625,0,0,3.431468360556489,0.0,3.0
1635112562.09375,0,0,56.065205789627925,0.0,3.0
1635112562.5625,0,0,0.0,0.0,3.0
1635112563.03125,0,0,31.798152324026947,0.0,3.0
1635112563.5,0,0,0.0,0.0,3.0
1635112563.96875,0,0,0.0,0.0,3.0
1635112564.4375,0,0,32.105940297021554,0.0,3.0
1635112564.90625,0,0,-8.213789215434812,0.0,3.0
1635112565.375,0,0,7.261257219334162,0.0,3.0
1635112565.84375,0,0,98.48243603035,0.0,3.0
1635112566.3125,0,0,0.0,0.0,3.0
1635112566.78125,0,0,25.661893044854253,0.0,3.0
1635112567.25,0,0,0.0,0.0,3.0
1635112567.71875,0,0,66.916654566907,0.0,3.0
1635112568.1875,0,0,0.0,0.0,3.0
1635112568.65625,0,0,13.731250016710032,0.0,3.0
1635112569.125,0,0,13.382145755190507,0.0,3.0
1635112569.59375,0,0,13.060786605276435,0.0,3.0
1635112570.0625,0,0,0.0,0.0,3.0
1635112570.53125,0,0,0.0,0.0,3.0
1635112571.0,0,0,14.507590473578832,0.0,3.0
1635112571.46875,0,0,0.0,0.0,3.0
1635112571.9375,0,0,14.424623075537736,0.0,3.0
1635112572.40625,0,0,33.11263366392169,0.0,3.0
1635112572.875,0,0,0.0,0.0,3.0
1635112573.34375,0,0,9.815113971049984,0.0,3.0
1635112573.8125,0,0,19.852115919289123,0.0,3.0
1635112574.28125,0,0,0.0,0.0,3.0
1635112574.75,0,0,16.40151611835257,0.0,3.0
1635112575.21875,0,0,0.0,0.0,3.0
1635112575.6875,0,0,19.292933951801,0.0,3.0
1635112576.15625,0,0,16.51228266349529,0.0,3.0
1635112576.625,0,0,0.0,0.0,3.0
1635112577.09375,0,0,0.0,0.0,3.0
1635112577.5625,0,0,31.73155338025811,0.0,3.0
1635112578.03125,0,0,15.31833495865165,0.0,3.0
1635112578.5,0,0,0.0,0.0,3.0
1635112578.96875,0,0,12.718554685677088,0.0,3.0
1635112579.4375,0,0,0.0,0.0,3.0
1635112579.90625,0,0,9.813957693721429,0.0,3.0
1635112580.375,0,0,0.0,0.0,3.0
1635112580.84375,0,0,10.226885087265984,0.0,3.0
1635112581.3125,0,0,0.0,0.0,3.0
1635112581.78125,0,0,14.016750316003739,0.0,3.0
1635112582.25,0,0,0.0,0.0,3.0
1635112582.71875,0,0,10.974667734814457,0.0,3.0
1635112583.1875,0,0,0.0,0.0,3.0
1635112583.65625,0,0,18.940937676763923,0.0,3.0
1635112584.125,0,0,-3.0949719775960802,0.0,3.0
1635112584.59375,0,0,169.30657016983255,0.0,3.0
1635112585.0625,0,0,0.0,0.0,3.0
1635112585.53125,0,0,0.0,0.0,3.0
1635112586.0,0,0,87.30652108151195,0.0,3.0
1635112586.46875,0,0,-24.322960052834603,0.0,3.0
1635112586.9375,0,0,-15.057935538709096,0.0,3.0
1635112587.40625,0,0,0.0,0.0,3.0
1635112587.875,0,0,0.0,0.0,3.0
1635112588.34375,0,0,10.26865587964351,0.0,3.0
1635112588.8125,0,0,0.0,0.0,3.0
1635112589.28125,0,0,22.770354611977083,0.0,3.0
1635112589.75,0,0,19.95785570288278,0.0,3.0
1635112590.21875,0,0,0.0,0.0,3.0
1635112590.6875,0,0,22.521677420077527,0.0,3.0
1635112591.15625,0,0,0.0,0.0,3.0
1635112591.625,0,0,0.0,0.0,3.0
1635112592.09375,0,0,19.723090331502757,0.0,3.0
1635112592.5625,0,0,0.0,0.0,3.0
1635112593.03125,0,0,19.834605336670005,0.0,3.0
1635112593.5,0,0,0.0,0.0,3.0
1635112593.96875,0,0,16.81789549819796,0.0,3.0
1635112594.4375,0,0,0.0,0.0,3.0
1635112594.90625,0,0,15.263400004295667,0.0,3.0
1635112595.375,0,0,16.78314416941186,0.0,3.0
1635112595.84375,0,0,0.0,0.0,3.0
1635112596.3125,0,0,14.205727336411401,0.0,3.0
1635112596.78125,0,0,15.629233310860858,0.0,3.0
1635112597.25,0,0,14.921247493618049,0.0,3.0
1635112597.71875,0,0,0.0,0.0,3.0
1635112598.1875,0,0,13.910890812431836,0.0,3.0
1635112598.65625,0,0,0.0,0.0,3.0
1635112599.125,0,0,0.0,0.0,3.0
1635112599.59375,0,0,18.16920498776276,0.0,3.0
1635112600.0625,0,0,0.0,0.0,3.0
1635112600.53125,0,0,15.9690776531441,0.0,3.0
1635112601.0,0,0,0.0,0.0,3.0
1635112601.46875,0,0,15.373739576306583,0.0,3.0
1635112601.9375,0,0,0.0,0.0,3.0
1635112602.40625,0,0,17.377176690302637,0.0,3.0
1635112602.875,0,0,16.52635036387549,0.0,3.0
1635112603.34375,0,0,0.0,0.0,3.0
1635112603.8125,0,0,21.173431373407983,0.0,3.0
1635112604.28125,0,0,0.0,0.0,3.0
1635112604.75,0,0,13.564793827091126,0.0,3.0
1635112605.21875,0,0,0.0,0.0,3.0
1635112605.6875,0,0,0.0,0.0,3.0
1635112606.15625,0,0,9.54861832020388,0.0,3.0
1635112606.625,0,0,0.0,0.0,3.0
1635112607.09375,0,0,25.275735377452936,0.0,3.0
1635112607.5625,0,0,0.0,0.0,3.0
1635112608.03125,0,0,10.835793054357008,0.0,3.0
1635112608.5,0,0,17.58575977679644,0.0,3.0
1635112608.96875,0,0,0.0,0.0,3.0
1635112609.4375,0,0,16.165493264418412,0.0,3.0
1635112609.90625,0,0,0.0,0.0,3.0
1635112610.375,0,0,14.486289665886964,0.0,3.0
1635112610.84375,0,0,0.0,0.0,3.0
1635112611.3125,0,0,12.50375062886995,0.0,3.0
1635112611.78125,0,0,0.0,0.0,3.0
1635112612.25,0,0,24.59883883078666,0.0,3.0
1635112612.71875,0,0,0.4458103632523574,0.0,3.0
1635112613.1875,0,0,10.16286178379148,0.0,3.0
1635112613.65625,0,0,12.505671116726377,0.0,3.0
1635112614.125,0,0,0.0,0.0,3.0
1635112614.59375,0,0,22.108341287216206,0.0,3.0
1635112615.0625,0,0,0.0,0.0,3.0
1635112615.53125,0,0,15.572373746840539,0.0,3.0
1635112616.0,0,0,11.011257613224423,0.0,3.0
1635112616.46875,0,0,0.0,0.0,3.0
1635112616.9375,0,0,17.03796521673819,0.0,3.0
1635112617.40625,0,0,0.0,0.0,3.0
1635112617.875,0,0,13.988505556449905,0.0,3.0
1635112618.34375,0,0,18.735830989270774,0.0,3.0
1635112618.8125,0,0,0.0,0.0,3.0
1635112619.28125,0,0,14.04875456411122,0.0,3.0
1635112619.75,0,0,0.0,0.0,3.0
1635112620.21875,0,0,18.475504541258072,0.0,3.0
1635112620.6875,0,0,0.0,0.0,3.0
1635112621.15625,0,0,16.031753684508143,0.0,3.0
1635112621.625,0,0,0.0,0.0,3.0
1635112622.09375,0,0,15.140715098925032,0.0,3.0
1635112622.5625,0,0,0.0,0.0,3.0
1635112623.03125,0,0,12.574164162718109,0.0,3.0
1635112623.5,0,0,13.534631473237905,0.0,3.0
1635112623.96875,0,0,0.0,0.0,3.0
1635112624.4375,0,0,14.60070621882451,0.0,3.0
1635112624.90625,0,0,0.0,0.0,3.0
1635112625.375,0,0,14.442410113534248,0.0,3.0
1635112625.84375,0,0,0.0,0.0,3.0
1635112626.3125,0,0,0.0,0.0,3.0
1635112626.78125,0,0,16.088214625855873,0.0,3.0
1635112627.25,0,0,0.0,0.0,3.0
1635112627.71875,0,0,16.236107642921738,0.0,3.0
1635112628.1875,0,0,0.0,0.0,3.0
1635112628.65625,0,0,14.940173200551117,0.0,3.0
1635112629.125,0,0,14.672773655323999,0.0,3.0
1635112629.59375,0,0,0.0,0.0,3.0
1635112630.0625,0,0,19.98200581925847,0.0,3.0
1635112630.53125,0,0,0.0,0.0,3.0
1635112631.0,0,0,52.744587637285925,0.0,3.0
1635112631.46875,0,0,-2.7213627882211937,0.0,3.0
1635112631.9375,0,0,0.3096427156111212,0.0,3.0
1635112632.40625,0,0,17.72363389968468,0.0,3.0
1635112632.875,0,0,0.0,0.0,3.0
1635112633.34375,0,0,37.44585159218382,0.0,3.0
1635112633.8125,0,0,0.0,0.0,3.0
1635112634.28125,0,0,12.320229345146291,0.0,3.0
1635112634.75,0,0,17.802442834075983,0.0,3.0
1635112635.21875,0,0,0.0,0.0,3.0
1635112635.6875,0,0,13.960811207392853,0.0,3.0
1635112636.15625,0,0,0.0,0.0,3.0
1635112636.625,0,0,13.135640784146975,0.0,3.0
1635112637.09375,0,0,15.968520550589316,0.0,3.0
1635112637.5625,0,0,0.0,0.0,3.0
1635112638.03125,0,0,17.245638533715166,0.0,3.0
1635112638.5,0,0,0.0,0.0,3.0
1635112638.96875,0,0,16.7917112365771,0.0,3.0
1635112639.4375,0,0,0.0,0.0,3.0
1635112639.90625,0,0,13.421077945785608,0.0,3.0
1635112640.375,0,0,0.0,0.0,3.0
1635112640.84375,0,0,9.565384443703284,0.0,3.0
1635112641.3125,0,0,14.077800779803354,0.0,3.0
1635112641.78125,0,0,0.0,0.0,3.0
1635112642.25,0,0,12.274180182687024,0.0,3.0
1635112642.71875,0,0,0.0,0.0,3.0
1635112643.1875,0,0,32.69241259357398,0.0,3.0
1635112643.65625,0,0,0.0,0.0,3.0
1635112644.125,0,0,14.835286265784749,0.0,3.0
1635112644.59375,0,0,0.0,0.0,3.0
1635112645.0625,0,0,14.385289817325356,0.0,3.0
1635112645.53125,0,0,16.189282689762226,0.0,3.0
1635112646.0,0,0,0.0,0.0,3.0
1635112646.46875,0,0,16.771948239455174,0.0,3.0
1635112646.9375,0,0,0.0,0.0,3.0
1635112647.40625,0,0,16.17998154037749,0.0,3.0
1635112647.875,0,0,14.76545057700306,0.0,3.0
1635112648.34375,0,0,14.61879672591103,0.0,3.0
1635112648.8125,0,0,22.86361804929375,0.0,3.0
1635112649.28125,0,0,0.0,0.0,3.0
1635112649.75,0,0,13.559010908840788,0.0,3.0
1635112650.21875,0,0,13.429503158573254,0.0,3.0
1635112650.6875,0,0,11.695831101672148,0.0,3.0
1635112651.15625,0,0,0.0,0.0,3.0
1635112651.625,0,0,16.695328640965172,0.0,3.0
1635112652.09375,0,0,0.0,0.0,3.0
1635112652.5625,0,0,13.66584989455532,0.0,3.0
1635112653.03125,0,0,14.1318914680034,0.0,3.0
1635112653.5,0,0,0.0,0.0,3.0
1635112653.96875,0,0,11.442765222543688,0.0,3.0
1635112654.4375,0,0,0.0,0.0,3.0
1635112654.90625,0,0,20.07931752547399,0.0,3.0
1635112655.375,0,0,0.0,0.0,3.0
1635112655.84375,0,0,14.92809739844742,0.0,3.0
1635112656.3125,0,0,0.0,0.0,3.0
1635112656.78125,0,0,14.390919729439341,0.0,3.0
1635112657.25,0,0,12.749640363847922,0.0,3.0
1635112657.71875,0,0,0.0,0.0,3.0
1635112658.1875,0,0,19.01214518783041,0.0,3.0
1635112658.65625,0,0,-12.287937743859986,0.0,3.0
1635112659.125,0,0,71.55968693658981,0.0,3.0
1635112659.59375,0,0,-5.881942603386752,0.0,3.0
1635112660.0625,0,0,-6.954853856385859,0.0,3.0
1635112660.53125,0,0,25.410005914466023,0.0,3.0
1635112661.0,0,0,0.0,0.0,3.0
1635112661.46875,0,0,15.978455702764021,0.0,3.0
1635112661.9375,0,0,0.0,0.0,3.0
1635112662.40625,0,0,0.0,0.0,3.0
1635112662.875,0,0,0.0,0.0,3.0
1635112663.34375,0,0,33.13798851048201,0.0,3.0
1635112663.8125,0,0,10.75857512067646,0.0,3.0
1635112664.28125,0,0,0.0,0.0,3.0
1635112664.75,0,0,20.918781088561595,0.0,3.0
1635112665.21875,0,0,14.335427580065373,0.0,3.0
1635112665.6875,0,0,0.0,0.0,3.0
1635112666.15625,0,0,23.206074406060218,0.0,3.0
1635112666.625,0,0,12.92563498187348,0.0,3.0
1635112667.09375,0,0,0.0,0.0,3.0
1635112667.5625,0,0,21.013502499227048,0.0,3.0
1635112668.03125,0,0,0.0,0.0,3.0
1635112668.5,0,0,0.0,0.0,3.0
1635112668.96875,0,0,15.409702658352595,0.0,3.0
1635112669.4375,0,0,0.0,0.0,3.0
1635112669.90625,0,0,14.801253490122633,0.0,3.0
1635112670.375,0,0,0.0,0.0,3.0
1635112670.84375,0,0,16.125068512051726,0.0,3.0
1635112671.3125,0,0,0.0,0.0,3.0
1635112671.78125,0,0,12.230438997280677,0.0,3.0
1635112672.25,0,0,0.0,0.0,3.0
1635112672.71875,0,0,19.537442714568115,0.0,3.0
1635112673.1875,0,0,0.0,0.0,3.0
1635112673.65625,0,0,0.0,0.0,3.0
1635112674.125,0,0,14.054691094169213,0.0,3.0
1635112674.59375,0,0,0.0,0.0,3.0
1635112675.0625,0,0,14.961179728294942,0.0,3.0
1635112675.53125,0,0,0.0,0.0,3.0
1635112676.0,0,0,19.50435523765801,0.0,3.0
1635112676.46875,0,0,15.718680254402113,0.0,3.0
1635112676.9375,0,0,0.0,0.0,3.0
1635112677.40625,0,0,15.36331580790623,0.0,3.0
1635112677.875,0,0,0.0,0.0,3.0
1635112678.34375,0,0,15.8420540188535,0.0,3.0
1635112678.8125,0,0,0.0,0.0,3.0
1635112679.28125,0,0,15.129492159763371,0.0,3.0
1635112679.75,0,0,17.142682447022885,0.0,3.0
1635112680.21875,0,0,0.0,0.0,3.0
1635112680.6875,0,0,15.83955570463051,0.0,3.0
1635112681.15625,0,0,0.0,0.0,3.0
1635112681.625,0,0,13.48849721821746,0.0,3.0
1635112682.09375,0,0,12.679611436530893,0.0,3.0
1635112682.5625,0,0,13.516456405749716,0.0,3.0
1635112683.03125,0,0,13.26697217875122,0.0,3.0
1635112683.5,0,0,0.0,0.0,3.0
1635112683.96875,0,0,16.354830180790362,0.0,3.0
1635112684.4375,0,0,0.0,0.0,3.0
1635112684.90625,0,0,19.610182223102367,0.0,3.0
1635112685.375,0,0,7.638801684116576,0.0,3.0
1635112685.84375,0,0,0.0,0.0,3.0
1635112686.3125,0,0,116.07900194052623,0.0,3.0
1635112686.78125,0,0,0.0,0.0,3.0
1635112687.25,0,0,27.12849147571299,0.0,3.0
1635112687.71875,0,0,0.0,0.0,3.0
1635112688.1875,0,0,46.8376697016946,0.0,3.0
1635112688.65625,0,0,0.0,0.0,3.0
1635112689.125,0,0,13.234809630775977,0.0,3.0
1635112689.59375,0,0,16.288292642757952,0.0,3.0
1635112690.0625,0,0,0.0,0.0,3.0
1635112690.53125,0,0,13.454505846555845,0.0,3.0
1635112691.0,0,0,13.72047586922535,0.0,3.0
1635112691.46875,0,0,14.226987395513454,0.0,3.0
1635112691.9375,0,0,0.0,0.0,3.0
1635112692.40625,0,0,15.792415059505066,0.0,3.0
1635112692.875,0,0,0.0,0.0,3.0
1635112693.34375,0,0,14.227671008563892,0.0,3.0
1635112693.8125,0,0,18.0446895857352,0.0,3.0
1635112694.28125,0,0,0.0,0.0,3.0
1635112694.75,0,0,15.40017115055227,0.0,3.0
1635112695.21875,0,0,0.0,0.0,3.0
1635112695.6875,0,0,14.947346563315032,0.0,3.0
1635112696.15625,0,0,0.0,0.0,3.0
1635112696.625,0,0,0.0,0.0,3.0
1635112697.09375,0,0,16.78124263204791,0.0,3.0
1635112697.5625,0,0,0.0,0.0,3.0
1635112698.03125,0,0,15.503624465795896,0.0,3.0
1635112698.5,0,0,0.0,0.0,3.0
1635112698.96875,0,0,15.038474527376884,0.0,3.0
1635112699.4375,0,0,0.0,0.0,3.0
1635112699.90625,0,0,17.10823801949967,0.0,3.0
1635112700.375,0,0,0.0,0.0,3.0
1635112700.84375,0,0,12.610035308575375,0.0,3.0
1635112701.3125,0,0,12.420247476438153,0.0,3.0
1635112701.78125,0,0,0.0,0.0,3.0
1635112702.25,0,0,17.636706069520876,0.0,3.0
1635112702.71875,0,0,0.0,0.0,3.0
1635112703.1875,0,0,13.619510407532788,0.0,3.0
1635112703.65625,0,0,0.0,0.0,3.0
1635112704.125,0,0,91.39957230693072,0.0,3.0
1635112704.59375,0,0,0.0,0.0,3.0
1635112705.0625,0,0,7.151353839056823,0.0,3.0
1635112705.53125,0,0,23.27155431704838,0.0,3.0
1635112706.0,0,0,0.0,0.0,3.0
1635112706.46875,0,0,11.645199335709783,0.0,3.0
1635112706.9375,0,0,0.0,0.0,3.0
1635112707.40625,0,0,18.526655576640625,0.0,3.0
1635112707.875,0,0,0.0,0.0,3.0
1635112708.34375,0,0,17.46629583790429,0.0,3.0
1635112708.8125,0,0,0.0,0.0,3.0
1635112709.28125,0,0,15.356248978566722,0.0,3.0
1635112709.75,0,0,13.613915683172875,0.0,3.0
1635112710.21875,0,0,0.0,0.0,3.0
1635112710.6875,0,0,15.271910202622397,0.0,3.0
1635112711.15625,0,0,0.0,0.0,3.0
1635112711.625,0,0,15.471597883166018,0.0,3.0
1635112712.09375,0,0,0.0,0.0,3.0
1635112712.5625,0,0,0.0,0.0,3.0
1635112713.03125,0,0,0.0,0.0,3.0
1635112713.5,0,0,17.45360363133341,0.0,3.0
1635112713.96875,0,0,17.669549176942873,0.0,3.0
1635112714.4375,0,0,0.0,0.0,3.0
1635112714.90625,0,0,14.53020243062997,0.0,3.0
1635112715.375,0,0,0.0,0.0,3.0
1635112715.84375,0,0,16.249438556104256,0.0,3.0
1635112716.3125,0,0,13.631484654959033,0.0,3.0
1635112716.78125,0,0,15.04000471494049,0.0,3.0
1635112717.25,0,0,15.898496417363914,0.0,3.0
1635112717.71875,0,0,0.0,0.0,3.0
1635112718.1875,0,0,14.816340820673433,0.0,3.0
1635112718.65625,0,0,0.0,0.0,3.0
1635112719.125,0,0,16.93082440420656,0.0,3.0
1635112719.59375,0,0,18.4606143422621,0.0,3.0
1635112720.0625,0,0,0.0,0.0,3.0
1635112720.53125,0,0,0.0,0.0,3.0
1635112721.0,0,0,0.0,0.0,3.0
1635112721.46875,0,0,18.565136340363026,0.0,3.0
1635112721.9375,0,0,0.0,0.0,3.0
1635112722.40625,0,0,20.193397080500173,0.0,3.0
1635112722.875,0,0,0.0,0.0,3.0
1635112723.34375,0,0,19.699039689360212,0.0,3.0
1635112723.8125,0,0,15.89756432088885,0.0,3.0
1635112724.28125,0,0,0.0,0.0,3.0
1635112724.75,0,0,25.39483850601178,0.0,3.0
1635112725.21875,0,0,0.0,0.0,3.0
1635112725.6875,0,0,17.87467652496711,0.0,3.0
1635112726.15625,0,0,0.0,0.0,3.0
1635112726.625,0,0,16.045496347394753,0.0,3.0
1635112727.09375,0,0,15.24240303107462,0.0,3.0
1635112727.5625,0,0,14.452393984819395,0.0,3.0
1635112728.03125,0,0,15.122814027396725,0.0,3.0
1635112728.5,0,0,0.0,0.0,3.0
1635112728.96875,0,0,12.761244139019045,0.0,3.0
