timestamp,mean_pulse_rate,pulse_rate_std,mean_pulse_amplitude,pulse_amplitude_std,block
1635111356.0,0,0,82.6701297886339,0.0,1.0
1635111356.46875,0,0,0.0,0.0,1.0
1635111356.9375,0,0,0.0,0.0,1.0
1635111357.40625,0,0,-32.93174952611546,0.0,1.0
1635111357.875,0,0,0.0,0.0,1.0
1635111358.34375,0,0,240.00394770452144,0.0,1.0
1635111358.8125,0,0,-15.014024742828788,0.0,1.0
1635111359.28125,0,0,41.24830894453552,0.0,1.0
1635111359.75,0,0,0.0,0.0,1.0
1635111360.21875,0,0,31.024598162232472,0.0,1.0
1635111360.6875,0,0,3.5047762147392447,0.0,1.0
1635111361.15625,0,0,57.974283172687144,0.0,1.0
1635111361.625,0,0,0.0,0.0,1.0
1635111362.09375,0,0,19.698141973596574,0.0,1.0
1635111362.5625,0,0,30.926516716486866,0.0,1.0
1635111363.03125,0,0,0.0,0.0,1.0
1635111363.5,0,0,26.5044816510058,0.0,1.0
1635111363.96875,0,0,0.0,0.0,1.0
1635111364.4375,0,0,36.17311764776686,0.0,1.0
1635111364.90625,0,0,0.0,0.0,1.0
1635111365.375,0,0,27.20269686665777,0.0,1.0
1635111365.84375,0,0,14.157533712848346,0.0,1.0
1635111366.3125,0,0,-5.625513471610988,0.0,1.0
1635111366.78125,0,0,0.0,0.0,1.0
1635111367.25,0,0,0.0,0.0,1.0
1635111367.71875,0,0,12.60008405477689,0.0,1.0
1635111368.1875,0,0,0.0,0.0,1.0
1635111368.65625,0,0,0.0,0.0,1.0
1635111369.125,0,0,0.0,0.0,1.0
1635111369.59375,0,0,18.856547786182837,0.0,1.0
1635111370.0625,0,0,0.0,0.0,1.0
1635111370.53125,0,0,35.61870565914285,0.0,1.0
1635111371.0,0,0,16.505364560112096,0.0,1.0
1635111371.46875,0,0,0.0,0.0,1.0
1635111371.9375,0,0,9.339096140118956,0.0,1.0
1635111372.40625,0,0,21.27124522536937,0.0,1.0
1635111372.875,0,0,10.92229543211456,0.0,1.0
1635111373.34375,0,0,24.296607097572128,0.0,1.0
1635111373.8125,0,0,8.18077768755655,0.0,1.0
1635111374.28125,0,0,-3.5966216940934514,0.0,1.0
1635111374.75,0,0,203.5408138318622,0.0,1.0
1635111375.21875,0,0,-47.557190448263306,0.0,1.0
1635111375.6875,0,0,27.259021118196834,0.0,1.0
1635111376.15625,0,0,0.0,0.0,1.0
1635111376.625,0,0,-11.582929550178912,0.0,1.0
1635111377.09375,0,0,-2.741659904243312,0.0,1.0
1635111377.5625,0,0,24.791737733373434,0.0,1.0
1635111378.03125,0,0,0.0,0.0,1.0
1635111378.5,0,0,0.0,0.0,1.0
1635111378.96875,0,0,20.723051427661716,0.0,1.0
1635111379.4375,0,0,17.029308841126404,0.0,1.0
1635111379.90625,0,0,0.0,0.0,1.0
1635111380.375,0,0,11.141938879616726,0.0,1.0
1635111380.84375,0,0,0.0,0.0,1.0
1635111381.3125,0,0,0.0,0.0,1.0
1635111381.78125,0,0,0.0,0.0,1.0
1635111382.25,0,0,9.612835064351765,0.0,1.0
1635111382.71875,0,0,15.412123684490954,0.0,1.0
1635111383.1875,0,0,0.0,0.0,1.0
1635111383.65625,0,0,12.60966416872325,0.0,1.0
1635111384.125,0,0,0.0,0.0,1.0
1635111384.59375,0,0,20.95577667707122,0.0,1.0
1635111385.0625,0,0,18.720334558716115,0.0,1.0
1635111385.53125,0,0,0.0,0.0,1.0
1635111386.0,0,0,0.0,0.0,1.0
1635111386.46875,0,0,11.140277391509073,0.0,1.0
1635111386.9375,0,0,76.01358055685398,0.0,1.0
1635111387.40625,0,0,-57.58044843933126,0.0,1.0
1635111387.875,0,0,0.0,0.0,1.0
1635111388.34375,0,0,34.06492323521282,0.0,1.0
1635111388.8125,0,0,0.0,0.0,1.0
1635111389.28125,0,0,20.585884591591,0.0,1.0
1635111389.75,0,0,22.353169116362597,0.0,1.0
1635111390.21875,0,0,14.61299255774818,0.0,1.0
1635111390.6875,0,0,-23.70080521732042,0.0,1.0
1635111391.15625,0,0,19.333338529395707,0.0,1.0
1635111391.625,0,0,0.0,0.0,1.0
1635111392.09375,0,0,24.45967235791736,0.0,1.0
1635111392.5625,0,0,13.778571829042406,0.0,1.0
1635111393.03125,0,0,0.0,0.0,1.0
1635111393.5,0,0,19.223079508504505,0.0,1.0
1635111393.96875,0,0,0.0,0.0,1.0
1635111394.4375,0,0,13.473721676741336,0.0,1.0
1635111394.90625,0,0,19.478262865612404,0.0,1.0
1635111395.375,0,0,0.0,0.0,1.0
1635111395.84375,0,0,0.0,0.0,1.0
1635111396.3125,0,0,31.287120234108333,0.0,1.0
1635111396.78125,0,0,0.0,0.0,1.0
1635111397.25,0,0,11.821618621476434,0.0,1.0
1635111397.71875,0,0,17.563914440370095,0.0,1.0
1635111398.1875,0,0,5.7192101131625535,0.0,1.0
1635111398.65625,0,0,3.6962011131542196,0.0,1.0
1635111399.125,0,0,0.0,0.0,1.0
1635111399.59375,0,0,16.053172695401543,0.0,1.0
1635111400.0625,0,0,24.859893216859575,0.0,1.0
1635111400.53125,0,0,17.74547740550723,0.0,1.0
1635111401.0,0,0,20.49598640480665,0.0,1.0
1635111401.46875,0,0,0.0,0.0,1.0
1635111401.9375,0,0,26.811387941671224,0.0,1.0
1635111402.40625,0,0,13.04781713727279,0.0,1.0
1635111402.875,0,0,0.0,0.0,1.0
1635111403.34375,0,0,14.100887788844357,0.0,1.0
1635111403.8125,0,0,0.0,0.0,1.0
1635111404.28125,0,0,29.027910457067193,0.0,1.0
1635111404.75,0,0,0.0,0.0,1.0
1635111405.21875,0,0,17.412162592424828,0.0,1.0
1635111405.6875,0,0,18.00654432374068,0.0,1.0
1635111406.15625,0,0,0.0,0.0,1.0
1635111406.625,0,0,12.553653992815617,0.0,1.0
1635111407.09375,0,0,0.0,0.0,1.0
1635111407.5625,0,0,13.912706869735322,0.0,1.0
1635111408.03125,0,0,17.999982375610386,0.0,1.0
1635111408.5,0,0,20.625291582063745,0.0,1.0
1635111408.96875,0,0,0.0,0.0,1.0
1635111409.4375,0,0,0.0,0.0,1.0
1635111409.90625,0,0,20.284392125723347,0.0,1.0
1635111410.375,0,0,0.0,0.0,1.0
1635111410.84375,0,0,4.473013238250839,0.0,1.0
1635111411.3125,0,0,12.990605584859651,0.0,1.0
1635111411.78125,0,0,12.76211456219004,0.0,1.0
1635111412.25,0,0,19.474925715849697,0.0,1.0
1635111412.71875,0,0,0.0,0.0,1.0
1635111413.1875,0,0,11.01958963991746,0.0,1.0
1635111413.65625,0,0,0.0,0.0,1.0
1635111414.125,0,0,19.978350745393133,0.0,1.0
1635111414.59375,0,0,0.0,0.0,1.0
1635111415.0625,0,0,16.38693640538118,0.0,1.0
1635111415.53125,0,0,6.4475169447789815,0.0,1.0
1635111416.0,0,0,0.0,0.0,1.0
1635111416.46875,0,0,29.477810896947172,0.0,1.0
1635111416.9375,0,0,0.0,0.0,1.0
1635111417.40625,0,0,16.114432488295837,0.0,1.0
1635111417.875,0,0,12.831713715245783,0.0,1.0
1635111418.34375,0,0,0.0,0.0,1.0
1635111418.8125,0,0,6.073427092271141,0.0,1.0
1635111419.28125,0,0,0.0,0.0,1.0
1635111419.75,0,0,10.082262617810876,0.0,1.0
1635111420.21875,0,0,29.625987556265347,0.0,1.0
1635111420.6875,0,0,0.0,0.0,1.0
1635111421.15625,0,0,16.487287713278285,0.0,1.0
1635111421.625,0,0,0.0,0.0,1.0
1635111422.09375,0,0,21.484642306130308,0.0,1.0
1635111422.5625,0,0,0.0,0.0,1.0
1635111423.03125,0,0,5.320189311841862,0.0,1.0
1635111423.5,0,0,16.14589482113287,0.0,1.0
1635111423.96875,0,0,0.0,0.0,1.0
1635111424.4375,0,0,24.645799320156833,0.0,1.0
1635111424.90625,0,0,0.0,0.0,1.0
1635111425.375,0,0,14.052418558553025,0.0,1.0
1635111425.84375,0,0,15.306349059944246,0.0,1.0
1635111426.3125,0,0,0.0,0.0,1.0
1635111426.78125,0,0,10.307634228898776,0.0,1.0
1635111427.25,0,0,0.0,0.0,1.0
1635111427.71875,0,0,19.95419994729334,0.0,1.0
1635111428.1875,0,0,14.876708251028754,0.0,1.0
1635111428.65625,0,0,0.0,0.0,1.0
1635111429.125,0,0,20.648240775468388,0.0,1.0
1635111429.59375,0,0,12.183654604638324,0.0,1.0
1635111430.0625,0,0,0.0,0.0,1.0
1635111430.53125,0,0,16.535847788504665,0.0,1.0
1635111431.0,0,0,0.0,0.0,1.0
1635111431.46875,0,0,9.987544535165757,0.0,1.0
1635111431.9375,0,0,23.53331216049884,0.0,1.0
1635111432.40625,0,0,30.18178596193193,0.0,1.0
1635111432.875,0,0,0.0,0.0,1.0
1635111433.34375,0,0,15.492244034178889,0.0,1.0
1635111433.8125,0,0,54.988341101051454,0.0,1.0
1635111434.28125,0,0,0.0,0.0,1.0
1635111434.75,0,0,22.63508298671364,0.0,1.0
1635111435.21875,0,0,0.0,0.0,1.0
1635111435.6875,0,0,18.486468606710815,0.0,1.0
1635111436.15625,0,0,9.8712402028749,0.0,1.0
1635111436.625,0,0,19.3316501693935,0.0,1.0
1635111437.09375,0,0,0.0,0.0,1.0
1635111437.5625,0,0,18.13360189349599,0.0,1.0
1635111438.03125,0,0,6.131307429992908,0.0,1.0
1635111438.5,0,0,7.450285267798381,0.0,1.0
1635111438.96875,0,0,5.712735991568661,0.0,1.0
1635111439.4375,0,0,0.0,0.0,1.0
1635111439.90625,0,0,7.466541671115594,0.0,1.0
1635111440.375,0,0,10.5300595404728,0.0,1.0
1635111440.84375,0,0,0.0,0.0,1.0
1635111441.3125,0,0,9.586447431053841,0.0,1.0
1635111441.78125,0,0,7.163557253898169,0.0,1.0
1635111442.25,0,0,7.207809222746137,0.0,1.0
1635111442.71875,0,0,9.493972949072694,0.0,1.0
1635111443.1875,0,0,12.074364133310612,0.0,1.0
1635111443.65625,0,0,7.407177943707907,0.0,1.0
1635111444.125,0,0,13.994282692785001,0.0,1.0
1635111444.59375,0,0,0.0,0.0,1.0
1635111445.0625,0,0,18.286335703034027,0.0,1.0
1635111445.53125,0,0,27.432849156269207,0.0,1.0
1635111446.0,0,0,0.0,0.0,1.0
1635111446.46875,0,0,22.0593582091886,0.0,1.0
1635111446.9375,0,0,0.0,0.0,1.0
1635111447.40625,0,0,20.67586386508363,0.0,1.0
1635111447.875,0,0,0.0,0.0,1.0
1635111448.34375,0,0,-3.556537308648971,0.0,1.0
1635111448.8125,0,0,18.732033817362215,0.0,1.0
1635111449.28125,0,0,9.03838752080013,0.0,1.0
1635111449.75,0,0,-1.041720859515,0.0,1.0
1635111450.21875,0,0,20.32320119973628,0.0,1.0
1635111450.6875,0,0,13.97457034853528,0.0,1.0
1635111451.15625,0,0,13.975262568249356,0.0,1.0
1635111451.625,0,0,18.61346337766812,0.0,1.0
1635111452.09375,0,0,0.0,0.0,1.0
1635111452.5625,0,0,17.032632544097936,0.0,1.0
1635111453.03125,0,0,14.55687122878152,0.0,1.0
1635111453.5,0,0,0.0,0.0,1.0
1635111453.96875,0,0,10.264883398823388,0.0,1.0
1635111454.4375,0,0,13.583561102208416,0.0,1.0
1635111454.90625,0,0,0.0,0.0,1.0
1635111455.375,0,0,12.532118362605141,0.0,1.0
1635111455.84375,0,0,0.0,0.0,1.0
1635111456.3125,0,0,11.764161412090319,0.0,1.0
1635111456.78125,0,0,0.0,0.0,1.0
1635111457.25,0,0,14.107715135276589,0.0,1.0
1635111457.71875,0,0,19.67520026890433,0.0,1.0
1635111458.1875,0,0,0.0,0.0,1.0
1635111458.65625,0,0,13.985253699165664,0.0,1.0
1635111459.125,0,0,0.0,0.0,1.0
1635111459.59375,0,0,0.0,0.0,1.0
1635111460.0625,0,0,0.0,0.0,1.0
1635111460.53125,0,0,23.639429091606807,0.0,1.0
1635111461.0,0,0,13.979582344300232,0.0,1.0
1635111461.46875,0,0,0.0,0.0,1.0
1635111461.9375,0,0,14.741679397296608,0.0,1.0
1635111462.40625,0,0,10.372064399531856,0.0,1.0
1635111462.875,0,0,0.0,0.0,1.0
1635111463.34375,0,0,21.04647609128975,0.0,1.0
1635111463.8125,0,0,0.0,0.0,1.0
1635111464.28125,0,0,11.15247436789855,0.0,1.0
1635111464.75,0,0,0.0,0.0,1.0
1635111465.21875,0,0,18.98455705843024,0.0,1.0
1635111465.6875,0,0,12.789509747378377,0.0,1.0
1635111466.15625,0,0,0.0,0.0,1.0
1635111466.625,0,0,19.842308277523077,0.0,1.0
1635111467.09375,0,0,0.0,0.0,1.0
1635111467.5625,0,0,18.861046537136076,0.0,1.0
1635111468.03125,0,0,0.0,0.0,1.0
1635111468.5,0,0,0.0,0.0,1.0
1635111468.96875,0,0,0.0,0.0,1.0
1635111469.4375,0,0,0.0,0.0,1.0
1635111469.90625,0,0,12.722061504766938,0.0,1.0
1635111470.375,0,0,0.0,0.0,1.0
1635111470.84375,0,0,14.994432111823501,0.0,1.0
1635111471.3125,0,0,0.0,0.0,1.0
1635111471.78125,0,0,22.392432375373893,0.0,1.0
1635111472.25,0,0,0.0,0.0,1.0
1635111472.71875,0,0,21.456950282406737,0.0,1.0
1635111473.1875,0,0,0.0,0.0,1.0
1635111473.65625,0,0,16.075884535201922,0.0,1.0
1635111474.125,0,0,11.366380243896517,0.0,1.0
1635111474.59375,0,0,0.0,0.0,1.0
1635111475.0625,0,0,15.850653679985255,0.0,1.0
1635111475.53125,0,0,16.424867571241297,0.0,1.0
1635111476.0,0,0,16.417732784842503,0.0,1.0
1635111476.46875,0,0,0.0,0.0,1.0
1635111476.9375,0,0,12.159877373261555,0.0,1.0
1635111477.40625,0,0,21.69368098703748,0.0,1.0
1635111477.875,0,0,0.0,0.0,1.0
1635111478.34375,0,0,13.098898757060411,0.0,1.0
1635111478.8125,0,0,15.832741345252673,0.0,1.0
1635111479.28125,0,0,15.043066552043435,0.0,1.0
1635111479.75,0,0,22.31096529302382,0.0,1.0
1635111480.21875,0,0,0.0,0.0,1.0
1635111480.6875,0,0,21.499937431290622,0.0,1.0
1635111481.15625,0,0,0.0,0.0,1.0
1635111481.625,0,0,22.295953813563013,0.0,1.0
1635111482.09375,0,0,0.0,0.0,1.0
1635111482.5625,0,0,14.95423954553025,0.0,1.0
1635111483.03125,0,0,19.107102611521807,0.0,1.0
1635111483.5,0,0,0.0,0.0,1.0
1635111483.96875,0,0,25.695506298124315,0.0,1.0
1635111484.4375,0,0,0.0,0.0,1.0
1635111484.90625,0,0,15.544790897768648,0.0,1.0
1635111485.375,0,0,20.54671575135979,0.0,1.0
1635111485.84375,0,0,19.387036303475057,0.0,1.0
1635111486.3125,0,0,0.0,0.0,1.0
1635111486.78125,0,0,0.0,0.0,1.0
1635111487.25,0,0,20.39616581525627,0.0,1.0
1635111487.71875,0,0,13.442058023983591,0.0,1.0
1635111488.1875,0,0,14.662045816940523,0.0,1.0
1635111488.65625,0,0,23.65586743070276,0.0,1.0
1635111489.125,0,0,0.0,0.0,1.0
1635111489.59375,0,0,25.669734658231484,0.0,1.0
1635111490.0625,0,0,0.0,0.0,1.0
1635111490.53125,0,0,0.0,0.0,1.0
1635111491.0,0,0,0.0,0.0,1.0
1635111491.46875,0,0,73.1806230937087,0.0,1.0
1635111491.9375,0,0,7.641845125483767,0.0,1.0
1635111492.40625,0,0,16.549086390402856,0.0,1.0
1635111492.875,0,0,9.324661018534764,0.0,1.0
1635111493.34375,0,0,41.46462049123338,0.0,1.0
1635111493.8125,0,0,25.60384860224211,0.0,1.0
1635111494.28125,0,0,0.10168968009201615,0.0,1.0
1635111494.75,0,0,0.0,0.0,1.0
1635111495.21875,0,0,152.88282138771402,0.0,1.0
1635111495.6875,0,0,-4.0925140861755045,0.0,1.0
1635111496.15625,0,0,31.224935978503005,0.0,1.0
1635111496.625,0,0,37.007219043319466,0.0,1.0
1635111497.09375,0,0,8.413096042614352,0.0,1.0
1635111497.5625,0,0,0.0,0.0,1.0
1635111498.03125,0,0,19.846962012681704,0.0,1.0
1635111498.5,0,0,0.0,0.0,1.0
1635111498.96875,0,0,18.893775924995214,0.0,1.0
1635111499.4375,0,0,0.0,0.0,1.0
1635111499.90625,0,0,14.840749796805323,0.0,1.0
1635111500.375,0,0,14.823032448701342,0.0,1.0
1635111500.84375,0,0,0.0,0.0,1.0
1635111501.3125,0,0,21.393970149199273,0.0,1.0
1635111501.78125,0,0,0.0,0.0,1.0
1635111502.25,0,0,8.40502884232773,0.0,1.0
1635111502.71875,0,0,12.720420809967754,0.0,1.0
1635111503.1875,0,0,0.0,0.0,1.0
1635111503.65625,0,0,14.651331261855576,0.0,1.0
1635111504.125,0,0,-17.133127812576717,0.0,1.0
1635111504.59375,0,0,0.0,0.0,1.0
1635111505.0625,0,0,115.92403010962666,0.0,1.0
1635111505.53125,0,0,0.0,0.0,1.0
1635111506.0,0,0,34.247825956823526,0.0,1.0
1635111506.46875,0,0,38.57599310102788,0.0,1.0
1635111506.9375,0,0,41.299483585225964,0.0,1.0
1635111507.40625,0,0,0.0,0.0,1.0
1635111507.875,0,0,25.74836538962447,0.0,1.0
1635111508.34375,0,0,0.0,0.0,1.0
1635111508.8125,0,0,20.357575219226973,0.0,1.0
1635111509.28125,0,0,9.217356884265207,0.0,1.0
1635111509.75,0,0,2.7874980893806924,0.0,1.0
1635111510.21875,0,0,12.682656576464723,0.0,1.0
1635111510.6875,0,0,30.530285564144137,0.0,1.0
1635111511.15625,0,0,29.376705181844873,0.0,1.0
1635111511.625,0,0,13.921435472091412,0.0,1.0
1635111512.09375,0,0,0.0,0.0,1.0
1635111512.5625,0,0,22.03589279440688,0.0,1.0
1635111513.03125,0,0,0.0,0.0,1.0
1635111513.5,0,0,9.07682247086746,0.0,1.0
1635111513.96875,0,0,0.0,0.0,1.0
1635111514.4375,0,0,0.0,0.0,1.0
1635111514.90625,0,0,8.634606523701915,0.0,1.0
1635111515.375,0,0,-1.66819208277662,0.0,1.0
1635111515.84375,0,0,16.111788352096255,0.0,1.0
1635111516.3125,0,0,0.0,0.0,1.0
1635111516.78125,0,0,14.1752791939758,0.0,1.0
1635111517.25,0,0,0.0,0.0,1.0
1635111517.71875,0,0,18.756224066215445,0.0,1.0
1635111518.1875,0,0,6.866098449479213,0.0,1.0
1635111518.65625,0,0,0.0,0.0,1.0
1635111519.125,0,0,17.81031446265637,0.0,1.0
1635111519.59375,0,0,0.0,0.0,1.0
1635111520.0625,0,0,12.841255168307919,0.0,1.0
1635111520.53125,0,0,0.0,0.0,1.0
1635111521.0,0,0,34.93819039291023,0.0,1.0
1635111521.46875,0,0,0.0,0.0,1.0
1635111521.9375,0,0,10.228266520944223,0.0,1.0
1635111522.40625,0,0,17.574667054521772,0.0,1.0
1635111522.875,0,0,0.0,0.0,1.0
1635111523.34375,0,0,17.858273264150863,0.0,1.0
1635111523.8125,0,0,0.0,0.0,1.0
1635111524.28125,0,0,20.596046168188515,0.0,1.0
1635111524.75,0,0,0.0,0.0,1.0
1635111525.21875,0,0,30.41914087936499,0.0,1.0
1635111525.6875,0,0,0.0,0.0,1.0
1635111526.15625,0,0,13.368183567269302,0.0,1.0
1635111526.625,0,0,16.620838020648755,0.0,1.0
1635111527.09375,0,0,0.0,0.0,1.0
1635111527.5625,0,0,16.416414124691094,0.0,1.0
1635111528.03125,0,0,0.0,0.0,1.0
1635111528.5,0,0,18.421900704761594,0.0,1.0
1635111528.96875,0,0,0.0,0.0,1.0
1635111529.4375,0,0,14.970658273922222,0.0,1.0
1635111529.90625,0,0,0.0,0.0,1.0
1635111530.375,0,0,16.537922396698963,0.0,1.0
1635111530.84375,0,0,0.0,0.0,1.0
1635111531.3125,0,0,0.0,0.0,1.0
1635111531.78125,0,0,18.03178241173748,0.0,1.0
1635111532.25,0,0,0.0,0.0,1.0
1635111532.71875,0,0,18.360568206550692,0.0,1.0
1635111533.1875,0,0,22.183122728314448,0.0,1.0
1635111533.65625,0,0,17.3735377923,0.0,1.0
1635111534.125,0,0,0.0,0.0,1.0
1635111534.59375,0,0,16.950587717346227,0.0,1.0
1635111535.0625,0,0,0.0,0.0,1.0
1635111535.53125,0,0,21.280080037069734,0.0,1.0
1635111536.0,0,0,0.0,0.0,1.0
1635111536.46875,0,0,14.014924831698465,0.0,1.0
1635111536.9375,0,0,17.483720155562516,0.0,1.0
1635111537.40625,0,0,0.0,0.0,1.0
1635111537.875,0,0,19.102184524388594,0.0,1.0
1635111538.34375,0,0,0.0,0.0,1.0
1635111538.8125,0,0,14.064509519670176,0.0,1.0
1635111539.28125,0,0,0.0,0.0,1.0
1635111539.75,0,0,16.673650940315518,0.0,1.0
1635111540.21875,0,0,0.0,0.0,1.0
1635111540.6875,0,0,27.800537564340956,0.0,1.0
1635111541.15625,0,0,0.0,0.0,1.0
1635111541.625,0,0,29.622554536571435,0.0,1.0
1635111542.09375,0,0,18.5237427798021,0.0,1.0
1635111542.5625,0,0,0.0,0.0,1.0
1635111543.03125,0,0,22.209290149948135,0.0,1.0
1635111543.5,0,0,0.0,0.0,1.0
1635111543.96875,0,0,22.49472276805101,0.0,1.0
1635111544.4375,0,0,0.0,0.0,1.0
1635111544.90625,0,0,17.648679260185006,0.0,1.0
1635111545.375,0,0,0.0,0.0,1.0
1635111545.84375,0,0,11.532051196749475,0.0,1.0
1635111546.3125,0,0,0.0,0.0,1.0
1635111546.78125,0,0,17.919175466742264,0.0,1.0
1635111547.25,0,0,16.951749105025957,0.0,1.0
1635111547.71875,0,0,9.75959632831109,0.0,1.0
1635111548.1875,0,0,0.0,0.0,1.0
1635111548.65625,0,0,12.775362625628471,0.0,1.0
1635111549.125,0,0,26.028310983884335,0.0,1.0
1635111549.59375,0,0,0.0,0.0,1.0
1635111550.0625,0,0,30.157801424021546,0.0,1.0
1635111550.53125,0,0,0.0,0.0,1.0
1635111551.0,0,0,21.066813969368397,0.0,1.0
1635111551.46875,0,0,0.0,0.0,1.0
1635111551.9375,0,0,20.773907171076207,0.0,1.0
1635111552.40625,0,0,0.0,0.0,1.0
1635111552.875,0,0,0.0,0.0,1.0
1635111553.34375,0,0,0.0,0.0,1.0
1635111553.8125,0,0,0.0,0.0,1.0
1635111554.28125,0,0,12.038059376935104,0.0,1.0
1635111554.75,0,0,17.08752758847721,0.0,1.0
1635111555.21875,0,0,13.424478759690276,0.0,1.0
1635111555.6875,0,0,10.056274225811674,0.0,1.0
1635111556.15625,0,0,1.6109708266480316,0.0,1.0
1635111556.625,0,0,0.0,0.0,1.0
1635111557.09375,0,0,91.80064640191262,0.0,1.0
1635111557.5625,0,0,16.709677259258495,0.0,1.0
1635111558.03125,0,0,59.965653119418896,0.0,1.0
1635111558.5,0,0,70.5030214323176,0.0,1.0
1635111558.96875,0,0,34.056708464008075,0.0,1.0
1635111559.4375,0,0,14.377919439663907,0.0,1.0
1635111559.90625,0,0,12.527932638167066,0.0,1.0
1635111560.375,0,0,0.0,0.0,1.0
1635111560.84375,0,0,20.498222083520897,0.0,1.0
1635111561.3125,0,0,68.1837244292326,0.0,1.0
1635111561.78125,0,0,0.0,0.0,1.0
1635111562.25,0,0,-27.491665481114154,0.0,1.0
1635111562.71875,0,0,65.20869080224068,0.0,1.0
1635111563.1875,0,0,0.0,0.0,1.0
1635111563.65625,0,0,12.43297106179308,0.0,1.0
1635111564.125,0,0,0.0,0.0,1.0
1635111564.59375,0,0,42.88533703658436,0.0,1.0
1635111565.0625,0,0,17.543504928786216,0.0,1.0
1635111565.53125,0,0,45.593205775062025,0.0,1.0
1635111566.0,0,0,33.55879301063038,0.0,1.0
1635111566.46875,0,0,-0.10608936751136275,0.0,1.0
1635111566.9375,0,0,6.051838939295149,0.0,1.0
1635111567.40625,0,0,31.004395638485764,0.0,1.0
1635111567.875,0,0,-0.6905532982686603,0.0,1.0
1635111568.34375,0,0,11.086772319840293,0.0,1.0
1635111568.8125,0,0,0.0,0.0,1.0
1635111569.28125,0,0,0.0,0.0,1.0
1635111569.75,0,0,8.88607452654413,0.0,1.0
1635111570.21875,0,0,15.195763292712057,0.0,1.0
1635111570.6875,0,0,-6.7097862354461055,0.0,1.0
1635111571.15625,0,0,19.977135272079504,0.0,1.0
1635111571.625,0,0,0.0,0.0,1.0
1635111572.09375,0,0,4.448418602925663,0.0,1.0
1635111572.5625,0,0,28.81860820211628,0.0,1.0
1635111573.03125,0,0,0.0,0.0,1.0
1635111573.5,0,0,18.728754120082417,0.0,1.0
1635111573.96875,0,0,0.0,0.0,1.0
1635111574.4375,0,0,16.65777584713011,0.0,1.0
1635111574.90625,0,0,0.0,0.0,1.0
1635111575.375,0,0,14.023772817312832,0.0,1.0
1635111575.84375,0,0,0.0,0.0,1.0
1635111576.3125,0,0,22.4117899771504,0.0,1.0
1635111576.78125,0,0,0.0,0.0,1.0
1635111577.25,0,0,14.802575049683027,0.0,1.0
1635111577.71875,0,0,0.0,0.0,1.0
1635111578.1875,0,0,16.94807150817581,0.0,1.0
1635111578.65625,0,0,16.991972666574913,0.0,1.0
1635111579.125,0,0,2.8854979700648964,0.0,1.0
1635111579.59375,0,0,0.0,0.0,1.0
1635111580.0625,0,0,18.213104329018883,0.0,1.0
1635111580.53125,0,0,20.43755328000301,0.0,1.0
1635111581.0,0,0,0.0,0.0,1.0
1635111581.46875,0,0,16.068402522077626,0.0,1.0
1635111581.9375,0,0,0.0,0.0,1.0
1635111582.40625,0,0,28.632775760620678,0.0,1.0
1635111582.875,0,0,0.0,0.0,1.0
1635111583.34375,0,0,35.09255280799692,0.0,1.0
1635111583.8125,0,0,0.0,0.0,1.0
1635111584.28125,0,0,13.726717972352967,0.0,1.0
1635111584.75,0,0,5.516828426657602,0.0,1.0
1635111585.21875,0,0,19.31426499423305,0.0,1.0
1635111585.6875,0,0,9.075702248710892,0.0,1.0
1635111586.15625,0,0,8.864013402037928,0.0,1.0
1635111586.625,0,0,34.02558252961619,0.0,1.0
1635111587.09375,0,0,0.0,0.0,1.0
1635111587.5625,0,0,38.70496172931651,0.0,1.0
1635111588.03125,0,0,0.0,0.0,1.0
1635111588.5,0,0,14.326921796636926,0.0,1.0
1635111588.96875,0,0,0.0,0.0,1.0
1635111589.4375,0,0,13.6376498568984,0.0,1.0
1635111589.90625,0,0,0.0,0.0,1.0
1635111590.375,0,0,27.49400243203986,0.0,1.0
1635111590.84375,0,0,0.0,0.0,1.0
1635111591.3125,0,0,13.275885973006805,0.0,1.0
1635111591.78125,0,0,0.0,0.0,1.0
1635111592.25,0,0,35.31118357757321,0.0,1.0
1635111592.71875,0,0,0.17856535435451773,0.0,1.0
1635111593.1875,0,0,-7.832590207965242,0.0,1.0
1635111593.65625,0,0,21.09788386204226,0.0,1.0
1635111594.125,0,0,0.0,0.0,1.0
1635111594.59375,0,0,39.911099451294554,0.0,1.0
1635111595.0625,0,0,0.0,0.0,1.0
1635111595.53125,0,0,23.335978567038044,0.0,1.0
1635111596.0,0,0,0.0,0.0,1.0
1635111596.46875,0,0,25.12390117341388,0.0,1.0
1635111596.9375,0,0,0.0,0.0,1.0
1635111597.40625,0,0,15.589461208496935,0.0,1.0
1635111597.875,0,0,20.5087608958153,0.0,1.0
1635111598.34375,0,0,0.0,0.0,1.0
1635111598.8125,0,0,0.0,0.0,1.0
1635111599.28125,0,0,17.64426606512006,0.0,1.0
1635111599.75,0,0,0.0,0.0,1.0
1635111600.21875,0,0,21.131494722233885,0.0,1.0
1635111600.6875,0,0,25.06444787866036,0.0,1.0
1635111601.15625,0,0,-6.577016295039915,0.0,1.0
1635111601.625,0,0,24.78531764700376,0.0,1.0
1635111602.09375,0,0,12.802076939810075,0.0,1.0
1635111602.5625,0,0,13.076646534787109,0.0,1.0
1635111603.03125,0,0,0.0,0.0,1.0
1635111603.5,0,0,6.841866104624946,0.0,1.0
1635111603.96875,0,0,0.0,0.0,1.0
1635111604.4375,0,0,0.0,0.0,1.0
1635111604.90625,0,0,0.0,0.0,1.0
1635111605.375,0,0,-1.296933648406321,0.0,1.0
1635111605.84375,0,0,17.613007619909382,0.0,1.0
1635111606.3125,0,0,0.0,0.0,1.0
1635111606.78125,0,0,30.98000539209454,0.0,1.0
1635111607.25,0,0,-16.754852871512682,0.0,1.0
1635111607.71875,0,0,27.05895542452539,0.0,1.0
1635111608.1875,0,0,0.0,0.0,1.0
1635111608.65625,0,0,13.9404760000268,0.0,1.0
1635111609.125,0,0,81.320812729779,0.0,1.0
1635111609.59375,0,0,34.44356662172044,0.0,1.0
1635111610.0625,0,0,71.07276608804759,0.0,1.0
1635111610.53125,0,0,67.88029490725238,0.0,1.0
1635111611.0,0,0,27.046653742320974,0.0,1.0
1635111611.46875,0,0,36.936144305454604,0.0,1.0
1635111611.9375,0,0,24.3941546068156,0.0,1.0
1635111612.40625,0,0,14.447629228810714,0.0,1.0
1635111612.875,0,0,30.649787455233096,0.0,1.0
1635111613.34375,0,0,15.824209986887832,0.0,1.0
1635111613.8125,0,0,-0.6661633677683203,0.0,1.0
1635111614.28125,0,0,44.01142753631722,0.0,1.0
1635111614.75,0,0,33.15252664907786,0.0,1.0
1635111615.21875,0,0,37.00643824567271,0.0,1.0
1635111615.6875,0,0,0.0,0.0,1.0
1635111616.15625,0,0,33.34498072032006,0.0,1.0
1635111616.625,0,0,21.696060849660267,0.0,1.0
1635111617.09375,0,0,0.0,0.0,1.0
1635111617.5625,0,0,10.647080561553128,0.0,1.0
1635111618.03125,0,0,17.923176245597723,0.0,1.0
1635111618.5,0,0,6.3835403096722665,0.0,1.0
1635111618.96875,0,0,0.0,0.0,1.0
1635111619.4375,0,0,17.92908410661727,0.0,1.0
1635111619.90625,0,0,8.003142008738315,0.0,1.0
1635111620.375,0,0,10.278723777007317,0.0,1.0
1635111620.84375,0,0,0.0,0.0,1.0
1635111621.3125,0,0,9.792459583067545,0.0,1.0
1635111621.78125,0,0,18.10221658567431,0.0,1.0
1635111622.25,0,0,10.67481854254365,0.0,1.0
1635111622.71875,0,0,0.0,0.0,1.0
1635111623.1875,0,0,3.1713720045715257,0.0,1.0
1635111623.65625,0,0,96.9272540521791,0.0,1.0
1635111624.125,0,0,0.0,0.0,1.0
1635111624.59375,0,0,41.77388416591018,0.0,1.0
1635111625.0625,0,0,0.0,0.0,1.0
1635111625.53125,0,0,32.94937201779954,0.0,1.0
1635111626.0,0,0,0.0,0.0,1.0
1635111626.46875,0,0,11.252669331036383,0.0,1.0
1635111626.9375,0,0,16.12968508234878,0.0,1.0
1635111627.40625,0,0,0.0,0.0,1.0
1635111627.875,0,0,54.53858704802203,0.0,1.0
1635111628.34375,0,0,-35.89768137213045,0.0,1.0
1635111628.8125,0,0,17.005086934585343,0.0,1.0
1635111629.28125,0,0,0.0,0.0,1.0
1635111629.75,0,0,11.607626850491858,0.0,1.0
1635111630.21875,0,0,0.0,0.0,1.0
1635111630.6875,0,0,16.005767205269702,0.0,1.0
1635111631.15625,0,0,14.977668171979575,0.0,1.0
1635111631.625,0,0,4.181115536743188,0.0,1.0
1635111632.09375,0,0,0.8671788463520509,0.0,1.0
1635111632.5625,0,0,0.0,0.0,1.0
1635111633.03125,0,0,4.917498509656503,0.0,1.0
1635111633.5,0,0,11.922629425660983,0.0,1.0
1635111633.96875,0,0,0.0,0.0,1.0
1635111634.4375,0,0,8.954122453421268,0.0,1.0
1635111634.90625,0,0,0.0,0.0,1.0
1635111635.375,0,0,15.954066655996835,0.0,1.0
1635111635.84375,0,0,9.919843346318524,0.0,1.0
1635111636.3125,0,0,0.0,0.0,1.0
1635111636.78125,0,0,14.410875001629858,0.0,1.0
1635111637.25,0,0,0.0,0.0,1.0
1635111637.71875,0,0,4.319210360439151,0.0,1.0
1635111638.1875,0,0,34.07438218340279,0.0,1.0
1635111638.65625,0,0,3.9360922191364334,0.0,1.0
1635111639.125,0,0,0.0,0.0,1.0
1635111639.59375,0,0,13.396707907432843,0.0,1.0
1635111640.0625,0,0,10.373023482567293,0.0,1.0
1635111640.53125,0,0,0.0,0.0,1.0
1635111641.0,0,0,12.004074171395057,0.0,1.0
1635111641.46875,0,0,0.0,0.0,1.0
1635111641.9375,0,0,13.988930502746777,0.0,1.0
1635111642.40625,0,0,6.839472246891147,0.0,1.0
1635111642.875,0,0,47.60931900228981,0.0,1.0
1635111643.34375,0,0,0.0,0.0,1.0
1635111643.8125,0,0,13.485553545959558,0.0,1.0
1635111644.28125,0,0,12.275982421534854,0.0,1.0
1635111644.75,0,0,0.0,0.0,1.0
1635111645.21875,0,0,12.740125712358298,0.0,1.0
1635111645.6875,0,0,0.0,0.0,1.0
1635111646.15625,0,0,80.35182956148938,0.0,1.0
1635111646.625,0,0,0.0,0.0,1.0
1635111647.09375,0,0,15.806569726491045,0.0,1.0
1635111647.5625,0,0,0.0,0.0,1.0
1635111648.03125,0,0,14.949842491822269,0.0,1.0
1635111648.5,0,0,14.268574962809605,0.0,1.0
1635111648.96875,0,0,0.0,0.0,1.0
1635111649.4375,0,0,17.944141053046923,0.0,1.0
1635111649.90625,0,0,0.0,0.0,1.0
1635111650.375,0,0,42.011672553794405,0.0,1.0
1635111650.84375,0,0,0.0,0.0,1.0
1635111651.3125,0,0,14.77426765981684,0.0,1.0
1635111651.78125,0,0,16.14441968312278,0.0,1.0
1635111652.25,0,0,0.0,0.0,1.0
1635111652.71875,0,0,42.46232115119522,0.0,1.0
1635111653.1875,0,0,0.0,0.0,1.0
1635111653.65625,0,0,18.223282492834336,0.0,1.0
1635111654.125,0,0,0.0,0.0,1.0
1635111654.59375,0,0,41.90566168632257,0.0,1.0
1635111655.0625,0,0,0.0,0.0,1.0
1635111655.53125,0,0,11.41638834035123,0.0,1.0
1635111656.0,0,0,32.761859852054165,0.0,1.0
1635111656.46875,0,0,0.0,0.0,1.0
1635111656.9375,0,0,16.717345124972717,0.0,1.0
1635111657.40625,0,0,0.0,0.0,1.0
1635111657.875,0,0,4.445147409797617,0.0,1.0
1635111658.34375,0,0,49.48505150571667,0.0,1.0
1635111658.8125,0,0,20.48747360322373,0.0,1.0
1635111659.28125,0,0,0.0,0.0,1.0
1635111659.75,0,0,17.72540730620937,0.0,1.0
1635111660.21875,0,0,0.0,0.0,1.0
1635111660.6875,0,0,0.0,0.0,1.0
1635111661.15625,0,0,50.48632229301091,0.0,1.0
1635111661.625,0,0,0.0,0.0,1.0
1635111662.09375,0,0,14.270283113937234,0.0,1.0
1635111662.5625,0,0,29.319916451052933,0.0,1.0
1635111663.03125,0,0,10.864056998365324,0.0,1.0
1635111663.5,0,0,0.0,0.0,1.0
1635111663.96875,0,0,59.501053471149554,0.0,1.0
1635111664.4375,0,0,0.0,0.0,1.0
1635111664.90625,0,0,14.048400333044215,0.0,1.0
1635111665.375,0,0,0.0,0.0,1.0
1635111665.84375,0,0,15.535035065238976,0.0,1.0
1635111666.3125,0,0,6.63783873449028,0.0,1.0
1635111666.78125,0,0,10.044714660420105,0.0,1.0
1635111667.25,0,0,0.0,0.0,1.0
1635111667.71875,0,0,11.208124213834878,0.0,1.0
1635111668.1875,0,0,0.0,0.0,1.0
1635111668.65625,0,0,21.282289236791847,0.0,1.0
1635111669.125,0,0,22.971245080477914,0.0,1.0
1635111669.59375,0,0,0.0,0.0,1.0
1635111670.0625,0,0,20.439116238784255,0.0,1.0
1635111670.53125,0,0,0.0,0.0,1.0
1635111671.0,0,0,0.0,0.0,1.0
1635111671.46875,0,0,0.0,0.0,1.0
1635111671.9375,0,0,30.50530778097772,0.0,1.0
1635111672.40625,0,0,15.274620784928267,0.0,1.0
1635111672.875,0,0,0.0,0.0,1.0
1635111673.34375,0,0,17.08006632182183,0.0,1.0
1635111673.8125,0,0,8.903839121963564,0.0,1.0
1635111674.28125,0,0,9.20155102965278,0.0,1.0
1635111674.75,0,0,28.408512497434053,0.0,1.0
1635111675.21875,0,0,-22.12459025228835,0.0,1.0
1635111675.6875,0,0,35.88755950292587,0.0,1.0
1635111676.15625,0,0,32.84040874227356,0.0,1.0
1635111676.625,0,0,0.0,0.0,1.0
1635111677.09375,0,0,31.58365431435874,0.0,1.0
1635111677.5625,0,0,0.0,0.0,1.0
1635111678.03125,0,0,13.718284201263021,0.0,1.0
1635111678.5,0,0,0.0,0.0,1.0
1635111678.96875,0,0,8.176301193833034,0.0,1.0
1635111679.4375,0,0,19.108871605515883,0.0,1.0
1635111679.90625,0,0,0.0,0.0,1.0
1635111680.375,0,0,-7.509816179524173,0.0,1.0
1635111680.84375,0,0,13.372640771017354,0.0,1.0
1635111681.3125,0,0,16.968628984080627,0.0,1.0
1635111681.78125,0,0,6.342917601917498,0.0,1.0
1635111682.25,0,0,-2.8663572586718526,0.0,1.0
1635111682.71875,0,0,42.701707235936844,0.0,1.0
1635111683.1875,0,0,43.94890409335076,0.0,1.0
1635111683.65625,0,0,0.0,0.0,1.0
1635111684.125,0,0,22.569124906272542,0.0,1.0
1635111684.59375,0,0,17.21540641813054,0.0,1.0
1635111685.0625,0,0,0.0,0.0,1.0
1635111685.53125,0,0,32.67875339497897,0.0,1.0
1635111686.0,0,0,0.0,0.0,1.0
1635111686.46875,0,0,17.58744887515678,0.0,1.0
1635111686.9375,0,0,19.094873551234528,0.0,1.0
1635111687.40625,0,0,23.582822425908173,0.0,1.0
1635111687.875,0,0,0.0,0.0,1.0
1635111688.34375,0,0,16.07112018332061,0.0,1.0
1635111688.8125,0,0,13.722100955052563,0.0,1.0
1635111689.28125,0,0,26.556166479921732,0.0,1.0
1635111689.75,0,0,0.0,0.0,1.0
1635111690.21875,0,0,16.630204593460935,0.0,1.0
1635111690.6875,0,0,13.847925825547934,0.0,1.0
1635111691.15625,0,0,0.0,0.0,1.0
1635111691.625,0,0,13.895816191064027,0.0,1.0
1635111692.09375,0,0,0.0,0.0,1.0
1635111692.5625,0,0,12.308967742180949,0.0,1.0
1635111693.03125,0,0,0.0,0.0,1.0
1635111693.5,0,0,10.950268110422064,0.0,1.0
1635111693.96875,0,0,0.0,0.0,1.0
1635111694.4375,0,0,11.537836667400073,0.0,1.0
1635111694.90625,0,0,53.62769631725735,0.0,1.0
1635111695.375,0,0,-14.25262499964626,0.0,1.0
1635111695.84375,0,0,22.690677521033034,0.0,1.0
1635111696.3125,0,0,0.0,0.0,1.0
1635111696.78125,0,0,0.0,0.0,1.0
1635111697.25,0,0,0.0,0.0,1.0
1635111697.71875,0,0,23.4762050796826,0.0,1.0
1635111698.1875,0,0,0.0,0.0,1.0
1635111698.65625,0,0,7.655960412783115,0.0,1.0
1635111699.125,0,0,0.0,0.0,1.0
1635111699.59375,0,0,31.946061322182917,0.0,1.0
1635111700.0625,0,0,0.0,0.0,1.0
1635111700.53125,0,0,10.439892885303442,0.0,1.0
1635111701.0,0,0,26.69899564108625,0.0,1.0
1635111701.46875,0,0,-0.19598955890149278,0.0,1.0
1635111701.9375,0,0,0.0,0.0,1.0
1635111702.40625,0,0,16.187434036999875,0.0,1.0
1635111702.875,0,0,5.19225899559017,0.0,1.0
1635111703.34375,0,0,43.95344262638986,0.0,1.0
1635111703.8125,0,0,-16.63611992677445,0.0,1.0
1635111704.28125,0,0,18.82611646022137,0.0,1.0
1635111704.75,0,0,6.268097114262291,0.0,1.0
1635111705.21875,0,0,15.477995749871004,0.0,1.0
1635111705.6875,0,0,0.0,0.0,1.0
1635111706.15625,0,0,13.112591863441226,0.0,1.0
1635111706.625,0,0,0.0,0.0,1.0
1635111707.09375,0,0,18.245709036531547,0.0,1.0
1635111707.5625,0,0,7.207858253594209,0.0,1.0
1635111708.03125,0,0,13.275421907931502,0.0,1.0
1635111708.5,0,0,12.039427310591563,0.0,1.0
1635111708.96875,0,0,0.0,0.0,1.0
1635111709.4375,0,0,7.4904406778715,0.0,1.0
1635111709.90625,0,0,0.0,0.0,1.0
1635111710.375,0,0,14.511860662506429,0.0,1.0
1635111710.84375,0,0,0.0,0.0,1.0
1635111711.3125,0,0,0.0,0.0,1.0
1635111711.78125,0,0,0.0,0.0,1.0
1635111712.25,0,0,0.0,0.0,1.0
1635111712.71875,0,0,0.0,0.0,1.0
1635111713.1875,0,0,21.743088401685874,0.0,1.0
1635111713.65625,0,0,0.0,0.0,1.0
1635111714.125,0,0,12.121492468992605,0.0,1.0
1635111714.59375,0,0,0.0,0.0,1.0
1635111715.0625,0,0,16.633145229486,0.0,1.0
1635111715.53125,0,0,0.0,0.0,1.0
1635111716.0,0,0,8.940336483149306,0.0,1.0
1635111716.46875,0,0,0.0,0.0,1.0
1635111716.9375,0,0,15.09768570691561,0.0,1.0
1635111717.40625,0,0,0.0,0.0,1.0
1635111717.875,0,0,12.636387487540789,0.0,1.0
1635111718.34375,0,0,5.688050592707572,0.0,1.0
1635111718.8125,0,0,9.751346878896992,0.0,1.0
1635111719.28125,0,0,0.0,0.0,1.0
1635111719.75,0,0,0.0,0.0,1.0
1635111720.21875,0,0,9.561788973685783,0.0,1.0
1635111720.6875,0,0,0.0,0.0,1.0
1635111721.15625,0,0,28.085897558744527,0.0,1.0
1635111721.625,0,0,0.0,0.0,1.0
1635111722.09375,0,0,11.099180031378983,0.0,1.0
1635111722.5625,0,0,0.0,0.0,1.0
1635111723.03125,0,0,19.81215575389736,0.0,1.0
1635111723.5,0,0,0.0,0.0,1.0
1635111723.96875,0,0,15.818032805277339,0.0,1.0
1635111724.4375,0,0,0.0,0.0,1.0
1635111724.90625,0,0,11.80656595172306,0.0,1.0
1635111725.375,0,0,26.79973273276786,0.0,1.0
1635111725.84375,0,0,1.2632794169208479,0.0,1.0
1635111726.3125,0,0,12.024496593686713,0.0,1.0
1635111726.78125,0,0,0.0,0.0,1.0
1635111727.25,0,0,21.085401940110557,0.0,1.0
1635111727.71875,0,0,0.0,0.0,1.0
1635111728.1875,0,0,22.987924345624773,0.0,1.0
1635111728.65625,0,0,14.46060876491824,0.0,1.0
1635111729.125,0,0,14.324073943663983,0.0,1.0
1635111729.59375,0,0,-3.313463467355137,0.0,1.0
1635111730.0625,0,0,13.434354440327722,0.0,1.0
1635111730.53125,0,0,9.488866702452622,0.0,1.0
1635111731.0,0,0,15.647411133332776,0.0,1.0
1635111731.46875,0,0,0.0,0.0,1.0
1635111731.9375,0,0,11.464444152428708,0.0,1.0
1635111732.40625,0,0,0.0,0.0,1.0
1635111732.875,0,0,18.000356244028556,0.0,1.0
1635111733.34375,0,0,-8.486190743630853,0.0,1.0
1635111733.8125,0,0,41.89978166280632,0.0,1.0
1635111734.28125,0,0,0.0,0.0,1.0
1635111734.75,0,0,75.37460081889753,0.0,1.0
1635111735.21875,0,0,-53.27856189558034,0.0,1.0
1635111735.6875,0,0,70.16127578719633,0.0,1.0
1635111736.15625,0,0,-36.588080629179636,0.0,1.0
1635111736.625,0,0,18.093886920281534,0.0,1.0
1635111737.09375,0,0,87.43538028203184,0.0,1.0
1635111737.5625,0,0,0.0,0.0,1.0
1635111738.03125,0,0,35.971773998576666,0.0,1.0
1635111738.5,0,0,-10.601541235386314,0.0,1.0
1635111738.96875,0,0,-6.6908751662515265,0.0,1.0
1635111739.4375,0,0,42.967783321451805,0.0,1.0
1635111739.90625,0,0,0.0,0.0,1.0
1635111740.375,0,0,24.3458859164813,0.0,1.0
1635111740.84375,0,0,0.0,0.0,1.0
1635111741.3125,0,0,-11.266228514520927,0.0,1.0
1635111741.78125,0,0,50.70051410141236,0.0,1.0
1635111742.25,0,0,51.23561787517274,0.0,1.0
1635111742.71875,0,0,0.0,0.0,1.0
1635111743.1875,0,0,68.42183564685462,0.0,1.0
1635111743.65625,0,0,0.0,0.0,1.0
1635111744.125,0,0,56.69509446889965,0.0,1.0
1635111744.59375,0,0,0.0,0.0,1.0
1635111745.0625,0,0,31.600929871617666,0.0,1.0
1635111745.53125,0,0,0.0,0.0,1.0
1635111746.0,0,0,53.978065105984086,0.0,1.0
1635111746.46875,0,0,0.0,0.0,1.0
1635111746.9375,0,0,-8.607914998209663,0.0,1.0
1635111747.40625,0,0,54.34526585634476,0.0,1.0
1635111747.875,0,0,0.0,0.0,1.0
1635111748.34375,0,0,7.886447654488126,0.0,1.0
1635111748.8125,0,0,0.0,0.0,1.0
1635111749.28125,0,0,17.677161373004687,0.0,1.0
1635111749.75,0,0,31.735653228820684,0.0,1.0
1635111750.21875,0,0,0.0,0.0,1.0
1635111750.6875,0,0,14.652302445918645,0.0,1.0
1635111751.15625,0,0,12.2883993976639,0.0,1.0
1635111751.625,0,0,12.649201634609398,0.0,1.0
1635111752.09375,0,0,17.93089439336517,0.0,1.0
1635111752.5625,0,0,-6.341287464021961,0.0,1.0
1635111753.03125,0,0,20.143930777022412,0.0,1.0
1635111753.5,0,0,0.0,0.0,1.0
1635111753.96875,0,0,26.131798552520873,0.0,1.0
1635111754.4375,0,0,0.0,0.0,1.0
1635111754.90625,0,0,20.07260990321778,0.0,1.0
1635111755.375,0,0,0.0,0.0,1.0
1635111755.84375,0,0,12.282937161373734,0.0,1.0
1635111756.3125,0,0,0.0,0.0,1.0
1635111756.78125,0,0,11.579733968828041,0.0,1.0
1635111757.25,0,0,12.6685760377991,0.0,1.0
1635111757.71875,0,0,0.0,0.0,1.0
1635111758.1875,0,0,18.505094887535787,0.0,1.0
1635111758.65625,0,0,0.0,0.0,1.0
1635111759.125,0,0,14.39488276701389,0.0,1.0
1635111759.59375,0,0,0.0,0.0,1.0
1635111760.0625,0,0,0.0,0.0,1.0
1635111760.53125,0,0,15.159781040130234,0.0,1.0
1635111761.0,0,0,16.72148467899111,0.0,1.0
1635111761.46875,0,0,0.0,0.0,1.0
1635111761.9375,0,0,17.083498291454095,0.0,1.0
1635111762.40625,0,0,0.0,0.0,1.0
1635111762.875,0,0,20.61453626699122,0.0,1.0
1635111763.34375,0,0,0.0,0.0,1.0
1635111763.8125,0,0,17.44757326579091,0.0,1.0
1635111764.28125,0,0,0.0,0.0,1.0
1635111764.75,0,0,8.173124166769501,0.0,1.0
1635111765.21875,0,0,0.0,0.0,1.0
1635111765.6875,0,0,0.0,0.0,1.0
1635111766.15625,0,0,27.019573763985647,0.0,1.0
1635111766.625,0,0,0.0,0.0,1.0
1635111767.09375,0,0,0.0,0.0,1.0
1635111767.5625,0,0,18.131587789692684,0.0,1.0
1635111768.03125,0,0,0.0,0.0,1.0
1635111768.5,0,0,15.436199676269098,0.0,1.0
1635111768.96875,0,0,17.972311422173696,0.0,1.0
1635111769.4375,0,0,0.0,0.0,1.0
1635111769.90625,0,0,16.880365651980824,0.0,1.0
1635111770.375,0,0,0.0,0.0,1.0
1635111770.84375,0,0,17.58987590347478,0.0,1.0
1635111771.3125,0,0,0.0,0.0,1.0
1635111771.78125,0,0,14.276776627501262,0.0,1.0
1635111772.25,0,0,0.0,0.0,1.0
1635111772.71875,0,0,18.272047086781324,0.0,1.0
1635111773.1875,0,0,0.0,0.0,1.0
1635111773.65625,0,0,17.409718245310028,0.0,1.0
1635111774.125,0,0,0.0,0.0,1.0
1635111774.59375,0,0,17.10990354239668,0.0,1.0
1635111775.0625,0,0,0.0,0.0,1.0
1635111775.53125,0,0,12.827287049488566,0.0,1.0
1635111776.0,0,0,0.0,0.0,1.0
1635111776.46875,0,0,20.125797312676372,0.0,1.0
1635111776.9375,0,0,0.0,0.0,1.0
1635111777.40625,0,0,14.004652143752809,0.0,1.0
1635111777.875,0,0,19.939355074738145,0.0,1.0
1635111778.34375,0,0,0.0,0.0,1.0
1635111778.8125,0,0,0.0,0.0,1.0
1635111779.28125,0,0,14.581493070137457,0.0,1.0
1635111779.75,0,0,20.471114563497345,0.0,1.0
1635111780.21875,0,0,0.0,0.0,1.0
1635111780.6875,0,0,16.891969822223224,0.0,1.0
1635111781.15625,0,0,0.0,0.0,1.0
1635111781.625,0,0,18.429511116302386,0.0,1.0
1635111782.09375,0,0,0.0,0.0,1.0
1635111782.5625,0,0,29.039164553290252,0.0,1.0
1635111783.03125,0,0,0.0,0.0,1.0
1635111783.5,0,0,19.490042043636183,0.0,1.0
1635111783.96875,0,0,0.0,0.0,1.0
1635111784.4375,0,0,13.356731123862225,0.0,1.0
1635111784.90625,0,0,0.0,0.0,1.0
1635111785.375,0,0,14.3330642403672,0.0,1.0
1635111785.84375,0,0,0.0,0.0,1.0
1635111786.3125,0,0,18.41526421244886,0.0,1.0
1635111786.78125,0,0,3.723651628617843,0.0,1.0
1635111787.25,0,0,15.982852110911681,0.0,1.0
1635111787.71875,0,0,23.78836814281411,0.0,1.0
1635111788.1875,0,0,0.0,0.0,1.0
1635111788.65625,0,0,35.16898312348714,0.0,1.0
1635111789.125,0,0,0.0,0.0,1.0
1635111789.59375,0,0,22.79826856827103,0.0,1.0
1635111790.0625,0,0,0.0,0.0,1.0
1635111790.53125,0,0,15.21694861602299,0.0,1.0
1635111791.0,0,0,15.435703166551017,0.0,1.0
1635111791.46875,0,0,0.0,0.0,1.0
1635111791.9375,0,0,36.56192336352848,0.0,1.0
1635111792.40625,0,0,11.524580546132265,0.0,1.0
1635111792.875,0,0,0.0,0.0,1.0
1635111793.34375,0,0,18.18945301372881,0.0,1.0
1635111793.8125,0,0,0.0,0.0,1.0
1635111794.28125,0,0,14.875591286857613,0.0,1.0
1635111794.75,0,0,15.358164872050672,0.0,1.0
1635111795.21875,0,0,0.0,0.0,1.0
1635111795.6875,0,0,0.0,0.0,1.0
1635111796.15625,0,0,0.0,0.0,1.0
1635111796.625,0,0,0.0,0.0,1.0
1635111797.09375,0,0,0.0,0.0,1.0
1635111797.5625,0,0,12.109024577519595,0.0,1.0
1635111798.03125,0,0,0.0,0.0,1.0
1635111798.5,0,0,15.25359091352664,0.0,1.0
1635111798.96875,0,0,0.0,0.0,1.0
1635111799.4375,0,0,16.602707600758162,0.0,1.0
1635111799.90625,0,0,0.0,0.0,1.0
1635111800.375,0,0,16.815439465269108,0.0,1.0
1635111800.84375,0,0,0.0,0.0,1.0
1635111801.3125,0,0,0.0,0.0,1.0
1635111801.78125,0,0,2.8663653111436336,0.0,1.0
1635111802.25,0,0,0.0,0.0,1.0
1635111802.71875,0,0,19.528670306028495,0.0,1.0
1635111803.1875,0,0,0.0,0.0,1.0
1635111803.65625,0,0,25.99009647316925,0.0,1.0
1635111804.125,0,0,0.0,0.0,1.0
1635111804.59375,0,0,18.783746682067513,0.0,1.0
1635111805.0625,0,0,14.611480016189894,0.0,1.0
1635111805.53125,0,0,0.0,0.0,1.0
1635111806.0,0,0,0.0,0.0,1.0
1635111806.46875,0,0,0.0,0.0,1.0
1635111806.9375,0,0,17.711689903740467,0.0,1.0
1635111807.40625,0,0,0.0,0.0,1.0
1635111807.875,0,0,13.588809829763665,0.0,1.0
1635111808.34375,0,0,0.0,0.0,1.0
1635111808.8125,0,0,20.161768864463298,0.0,1.0
1635111809.28125,0,0,0.0,0.0,1.0
1635111809.75,0,0,16.36878939509592,0.0,1.0
1635111810.21875,0,0,17.600925547885222,0.0,1.0
1635111810.6875,0,0,0.0,0.0,1.0
1635111811.15625,0,0,16.220147046249277,0.0,1.0
1635111811.625,0,0,0.0,0.0,1.0
1635111812.09375,0,0,11.424931968377914,0.0,1.0
1635111812.5625,0,0,0.0,0.0,1.0
1635111813.03125,0,0,18.593067502085994,0.0,1.0
1635111813.5,0,0,0.0,0.0,1.0
1635111813.96875,0,0,18.956989502299148,0.0,1.0
1635111814.4375,0,0,0.0,0.0,1.0
1635111814.90625,0,0,19.531719125418924,0.0,1.0
1635111815.375,0,0,0.0,0.0,1.0
1635111815.84375,0,0,21.60264666097701,0.0,1.0
1635111816.3125,0,0,0.0,0.0,1.0
1635111816.78125,0,0,19.776520130577897,0.0,1.0
1635111817.25,0,0,15.564708705093542,0.0,1.0
1635111817.71875,0,0,0.0,0.0,1.0
1635111818.1875,0,0,19.053735846429728,0.0,1.0
1635111818.65625,0,0,0.0,0.0,1.0
1635111819.125,0,0,20.91730110097753,0.0,1.0
1635111819.59375,0,0,0.0,0.0,1.0
1635111820.0625,0,0,15.384650322815189,0.0,1.0
1635111820.53125,0,0,18.586120620361758,0.0,1.0
1635111821.0,0,0,0.0,0.0,1.0
1635111821.46875,0,0,0.0,0.0,1.0
1635111821.9375,0,0,28.40755069147568,0.0,1.0
1635111822.40625,0,0,0.0,0.0,1.0
1635111822.875,0,0,20.69613824175096,0.0,1.0
1635111823.34375,0,0,15.57427834023432,0.0,1.0
1635111823.8125,0,0,0.0,0.0,1.0
1635111824.28125,0,0,21.144655691819256,0.0,1.0
1635111824.75,0,0,0.0,0.0,1.0
1635111825.21875,0,0,15.90733800674141,0.0,1.0
1635111825.6875,0,0,0.0,0.0,1.0
1635111826.15625,0,0,19.826217906490967,0.0,1.0
1635111826.625,0,0,0.0,0.0,1.0
1635111827.09375,0,0,17.71680748185214,0.0,1.0
1635111827.5625,0,0,16.62490462448557,0.0,1.0
1635111828.03125,0,0,0.0,0.0,1.0
1635111828.5,0,0,11.865047560691101,0.0,1.0
1635111828.96875,0,0,0.0,0.0,1.0
1635111829.4375,0,0,23.362662427729937,0.0,1.0
1635111829.90625,0,0,0.0,0.0,1.0
1635111830.375,0,0,0.0,0.0,1.0
1635111830.84375,0,0,20.19045718348791,0.0,1.0
1635111831.3125,0,0,0.0,0.0,1.0
1635111831.78125,0,0,26.878706172235347,0.0,1.0
1635111832.25,0,0,0.0,0.0,1.0
1635111832.71875,0,0,22.118995385410223,0.0,1.0
1635111833.1875,0,0,0.0,0.0,1.0
1635111833.65625,0,0,18.09289265899579,0.0,1.0
1635111834.125,0,0,20.14807368985273,0.0,1.0
1635111834.59375,0,0,0.0,0.0,1.0
1635111835.0625,0,0,0.0,0.0,1.0
1635111835.53125,0,0,0.0,0.0,1.0
1635111836.0,0,0,15.826381923375356,0.0,1.0
1635111836.46875,0,0,0.0,0.0,1.0
1635111836.9375,0,0,19.767173808700882,0.0,1.0
1635111837.40625,0,0,0.0,0.0,1.0
1635111837.875,0,0,22.676563176269344,0.0,1.0
1635111838.34375,0,0,0.0,0.0,1.0
1635111838.8125,0,0,22.91846295902285,0.0,1.0
1635111839.28125,0,0,0.0,0.0,1.0
1635111839.75,0,0,22.062635226577306,0.0,1.0
1635111840.21875,0,0,20.341379667384537,0.0,1.0
1635111840.6875,0,0,0.0,0.0,1.0
1635111841.15625,0,0,20.094250639157625,0.0,1.0
1635111841.625,0,0,0.0,0.0,1.0
1635111842.09375,0,0,17.39496209575746,0.0,1.0
1635111842.5625,0,0,0.0,0.0,1.0
1635111843.03125,0,0,19.794541276546152,0.0,1.0
1635111843.5,0,0,0.0,0.0,1.0
1635111843.96875,0,0,20.833575061357156,0.0,1.0
1635111844.4375,0,0,0.0,0.0,1.0
1635111844.90625,0,0,27.819034796548188,0.0,1.0
1635111845.375,0,0,18.813470646808376,0.0,1.0
1635111845.84375,0,0,0.0,0.0,1.0
1635111846.3125,0,0,25.876795144807172,0.0,1.0
1635111846.78125,0,0,0.0,0.0,1.0
1635111847.25,0,0,20.67602981214393,0.0,1.0
1635111847.71875,0,0,0.0,0.0,1.0
1635111848.1875,0,0,18.114950866975498,0.0,1.0
1635111848.65625,0,0,0.0,0.0,1.0
1635111849.125,0,0,17.798836111471378,0.0,1.0
1635111849.59375,0,0,24.09427291885351,0.0,1.0
1635111850.0625,0,0,0.0,0.0,1.0
1635111850.53125,0,0,30.158755135613834,0.0,1.0
1635111851.0,0,0,0.0,0.0,1.0
1635111851.46875,0,0,45.79818293376447,0.0,1.0
1635111851.9375,0,0,0.0,0.0,1.0
1635111852.40625,0,0,20.24080810022089,0.0,1.0
1635111852.875,0,0,39.28765453621963,0.0,1.0
1635111853.34375,0,0,-26.8001588268534,0.0,1.0
1635111853.8125,0,0,44.774484580324554,0.0,1.0
1635111854.28125,0,0,0.0,0.0,1.0
1635111854.75,0,0,31.249948489421786,0.0,1.0
1635111855.21875,0,0,6.268886264033499,0.0,1.0
1635111855.6875,0,0,0.0,0.0,1.0
1635111856.15625,0,0,41.50804190017547,0.0,1.0
1635111856.625,0,0,0.0,0.0,1.0
1635111857.09375,0,0,10.893767260571158,0.0,1.0
1635111857.5625,0,0,0.0,0.0,1.0
1635111858.03125,0,0,20.99414429781089,0.0,1.0
1635111858.5,0,0,0.0,0.0,1.0
1635111858.96875,0,0,13.760661690989021,0.0,1.0
1635111859.4375,0,0,0.0,0.0,1.0
1635111859.90625,0,0,15.097773742072045,0.0,1.0
1635111860.375,0,0,20.987555458362856,0.0,1.0
1635111860.84375,0,0,0.0,0.0,1.0
1635111861.3125,0,0,6.076449394576454,0.0,1.0
1635111861.78125,0,0,0.0,0.0,1.0
1635111862.25,0,0,78.02688127978007,0.0,1.0
1635111862.71875,0,0,0.0,0.0,1.0
1635111863.1875,0,0,67.38026811508357,0.0,1.0
1635111863.65625,0,0,0.0,0.0,1.0
1635111864.125,0,0,138.33974048488435,0.0,1.0
1635111864.59375,0,0,238.5870029685238,0.0,1.0
1635111865.0625,0,0,0.0,0.0,1.0
1635111865.53125,0,0,104.07553103840606,0.0,1.0
1635111866.0,0,0,59.4880976935086,0.0,1.0
1635111866.46875,0,0,97.54713919496783,0.0,1.0
1635111866.9375,0,0,-52.038249048569895,0.0,1.0
1635111867.40625,0,0,209.0988309394634,0.0,1.0
1635111867.875,0,0,0.0,0.0,1.0
1635111868.34375,0,0,21.720090404427406,0.0,1.0
1635111868.8125,0,0,27.12695124513987,0.0,1.0
1635111869.28125,0,0,0.0,0.0,1.0
1635111869.75,0,0,0.0,0.0,1.0
1635111870.21875,0,0,0.0,0.0,1.0
1635111870.6875,0,0,23.73612777145162,0.0,1.0
1635111871.15625,0,0,0.0,0.0,1.0
1635111871.625,0,0,20.506673598786996,0.0,1.0
1635111872.09375,0,0,0.0,0.0,1.0
1635111872.5625,0,0,30.78023056871008,0.0,1.0
1635111873.03125,0,0,-0.9943532169215198,0.0,1.0
1635111873.5,0,0,0.0,0.0,1.0
1635111873.96875,0,0,64.44272728385265,0.0,1.0
1635111874.4375,0,0,0.0,0.0,1.0
1635111874.90625,0,0,45.92892032302881,0.0,1.0
1635111875.375,0,0,-5.0136166154966855,0.0,1.0
1635111875.84375,0,0,80.87406536948318,0.0,1.0
1635111876.3125,0,0,0.0,0.0,1.0
1635111876.78125,0,0,8.191128895000848,0.0,1.0
1635111877.25,0,0,42.79502907460355,0.0,1.0
1635111877.71875,0,0,3.3433490967610937,0.0,1.0
1635111878.1875,0,0,0.0,0.0,1.0
1635111878.65625,0,0,24.081949753812395,0.0,1.0
1635111879.125,0,0,15.678546239001461,0.0,1.0
1635111879.59375,0,0,0.0,0.0,1.0
1635111880.0625,0,0,12.180404407661461,0.0,1.0
1635111880.53125,0,0,0.0,0.0,1.0
1635111881.0,0,0,20.705009077074006,0.0,1.0
1635111881.46875,0,0,0.0,0.0,1.0
1635111881.9375,0,0,0.0,0.0,1.0
1635111882.40625,0,0,20.7768877340785,0.0,1.0
1635111882.875,0,0,0.0,0.0,1.0
1635111883.34375,0,0,15.705851052946796,0.0,1.0
1635111883.8125,0,0,25.83370636241525,0.0,1.0
1635111884.28125,0,0,11.366804656015058,0.0,1.0
1635111884.75,0,0,15.071705927294337,0.0,1.0
1635111885.21875,0,0,0.0,0.0,1.0
1635111885.6875,0,0,13.937330203784294,0.0,1.0
1635111886.15625,0,0,0.0,0.0,1.0
1635111886.625,0,0,17.88826594552722,0.0,1.0
1635111887.09375,0,0,0.0,0.0,1.0
1635111887.5625,0,0,13.812717780800021,0.0,1.0
1635111888.03125,0,0,0.0,0.0,1.0
1635111888.5,0,0,0.0,0.0,1.0
1635111888.96875,0,0,13.065907710268169,0.0,1.0
1635111889.4375,0,0,6.174200646061688,0.0,1.0
1635111889.90625,0,0,5.677907022802849,0.0,1.0
1635111890.375,0,0,0.0,0.0,1.0
1635111890.84375,0,0,19.17629147457915,0.0,1.0
1635111891.3125,0,0,14.721229648336426,0.0,1.0
1635111891.78125,0,0,13.50066806217895,0.0,1.0
1635111892.25,0,0,14.195977354941842,0.0,1.0
1635111892.71875,0,0,0.0,0.0,1.0
1635111893.1875,0,0,11.79316831632061,0.0,1.0
1635111893.65625,0,0,0.0,0.0,1.0
1635111894.125,0,0,35.606507101480254,0.0,1.0
1635111894.59375,0,0,0.0,0.0,1.0
1635111895.0625,0,0,17.42285312538801,0.0,1.0
1635111895.53125,0,0,0.0,0.0,1.0
1635111896.0,0,0,9.397460313967024,0.0,1.0
1635111896.46875,0,0,5.223462492204746,0.0,1.0
1635111896.9375,0,0,0.0,0.0,1.0
1635111897.40625,0,0,21.236119673040026,0.0,1.0
1635111897.875,0,0,0.0,0.0,1.0
1635111898.34375,0,0,11.840510234744288,0.0,1.0
1635111898.8125,0,0,0.0,0.0,1.0
1635111899.28125,0,0,15.926910803939283,0.0,1.0
1635111899.75,0,0,15.379347470167179,0.0,1.0
1635111900.21875,0,0,0.0,0.0,1.0
1635111900.6875,0,0,15.472779925778402,0.0,1.0
1635111901.15625,0,0,0.0,0.0,1.0
1635111901.625,0,0,12.741435850535796,0.0,1.0
1635111902.09375,0,0,0.0,0.0,1.0
1635111902.5625,0,0,8.263613137057758,0.0,1.0
1635111903.03125,0,0,15.994624673721038,0.0,1.0
1635111903.5,0,0,0.0,0.0,1.0
1635111903.96875,0,0,14.488750799796893,0.0,1.0
1635111904.4375,0,0,0.0,0.0,1.0
1635111904.90625,0,0,14.003533930226356,0.0,1.0
1635111905.375,0,0,0.0,0.0,1.0
1635111905.84375,0,0,15.03933925895782,0.0,1.0
1635111906.3125,0,0,0.0,0.0,1.0
1635111906.78125,0,0,5.818425464937585,0.0,1.0
1635111907.25,0,0,13.380677843845309,0.0,1.0
1635111907.71875,0,0,0.0,0.0,1.0
1635111908.1875,0,0,19.112705541744887,0.0,1.0
1635111908.65625,0,0,0.0,0.0,1.0
1635111909.125,0,0,13.372263348975844,0.0,1.0
1635111909.59375,0,0,0.0,0.0,1.0
1635111910.0625,0,0,15.284653427617684,0.0,1.0
1635111910.53125,0,0,0.0,0.0,1.0
1635111911.0,0,0,13.11575814277577,0.0,1.0
1635111911.46875,0,0,0.0,0.0,1.0
1635111911.9375,0,0,8.926432099744364,0.0,1.0
1635111912.40625,0,0,2.707016986265817,0.0,1.0
1635111912.875,0,0,5.638968584939685,0.0,1.0
1635111913.34375,0,0,7.851222457594983,0.0,1.0
1635111913.8125,0,0,-1.6848710116043544,0.0,1.0
1635111914.28125,0,0,17.419147905308346,0.0,1.0
1635111914.75,0,0,4.297526886211757,0.0,1.0
1635111915.21875,0,0,11.1012786220425,0.0,1.0
1635111915.6875,0,0,18.746836978898543,0.0,1.0
1635111916.15625,0,0,1.1539178266120418,0.0,1.0
1635111916.625,0,0,54.80557336140642,0.0,1.0
1635111917.09375,0,0,0.0,0.0,1.0
1635111917.5625,0,0,15.750729666291907,0.0,1.0
1635111918.03125,0,0,0.0,0.0,1.0
1635111918.5,0,0,13.241966496496968,0.0,1.0
1635111918.96875,0,0,11.037607785117098,0.0,1.0
1635111919.4375,0,0,0.0,0.0,1.0
1635111919.90625,0,0,45.1599103147298,0.0,1.0
1635111920.375,0,0,0.0,0.0,1.0
1635111920.84375,0,0,43.49240771299381,0.0,1.0
1635111921.3125,0,0,113.6737128994111,0.0,1.0
1635111921.78125,0,0,5.7216219851557355,0.0,1.0
1635111922.25,0,0,-20.24303673098821,0.0,1.0
1635111922.71875,0,0,4.448406914600908,0.0,1.0
1635111923.1875,0,0,25.7434034416458,0.0,1.0
1635111923.65625,0,0,0.0,0.0,1.0
1635111924.125,0,0,23.666932162123917,0.0,1.0
1635111924.59375,0,0,0.0,0.0,1.0
1635111925.0625,0,0,18.495143579326758,0.0,1.0
1635111925.53125,0,0,4.322305292012627,0.0,1.0
1635111926.0,0,0,-16.272613406086762,0.0,1.0
1635111926.46875,0,0,68.81527581088118,0.0,1.0
1635111926.9375,0,0,-22.98812360403873,0.0,1.0
1635111927.40625,0,0,20.96697877293395,0.0,1.0
1635111927.875,0,0,15.883235455289295,0.0,1.0
1635111928.34375,0,0,18.933554524106377,0.0,1.0
1635111928.8125,0,0,0.0,0.0,1.0
1635111929.28125,0,0,11.456074759132639,0.0,1.0
1635111929.75,0,0,26.040516841453368,0.0,1.0
1635111930.21875,0,0,0.0,0.0,1.0
1635111930.6875,0,0,12.488779962177786,0.0,1.0
1635111931.15625,0,0,91.72019613164704,0.0,1.0
1635111931.625,0,0,0.0,0.0,1.0
1635111932.09375,0,0,70.08021276123219,0.0,1.0
1635111932.5625,0,0,-0.9019323262333996,0.0,1.0
1635111933.03125,0,0,-4.707206747825118,0.0,1.0
1635111933.5,0,0,46.398619968803345,0.0,1.0
1635111933.96875,0,0,0.0,0.0,1.0
1635111934.4375,0,0,21.399450155326605,0.0,1.0
1635111934.90625,0,0,34.64650155498952,0.0,1.0
1635111935.375,0,0,-32.498927150164484,0.0,1.0
1635111935.84375,0,0,35.98897605188148,0.0,1.0
1635111936.3125,0,0,0.0,0.0,1.0
1635111936.78125,0,0,13.418331972496665,0.0,1.0
1635111937.25,0,0,16.19041769119802,0.0,1.0
1635111937.71875,0,0,0.0,0.0,1.0
1635111938.1875,0,0,17.490965427610167,0.0,1.0
1635111938.65625,0,0,12.644907931755705,0.0,1.0
1635111939.125,0,0,8.145495102906807,0.0,1.0
1635111939.59375,0,0,0.0,0.0,1.0
1635111940.0625,0,0,11.743617587893302,0.0,1.0
1635111940.53125,0,0,0.0,0.0,1.0
1635111941.0,0,0,0.0,0.0,1.0
1635111941.46875,0,0,13.950734328073537,0.0,1.0
1635111941.9375,0,0,13.500283333420338,0.0,1.0
1635111942.40625,0,0,14.825094202053977,0.0,1.0
1635111942.875,0,0,0.0,0.0,1.0
1635111943.34375,0,0,12.590075341373486,0.0,1.0
1635111943.8125,0,0,0.0,0.0,1.0
1635111944.28125,0,0,10.4151640624603,0.0,1.0
1635111944.75,0,0,14.795788234166976,0.0,1.0
1635111945.21875,0,0,2.8349119309131976,0.0,1.0
1635111945.6875,0,0,17.287944972695023,0.0,1.0
1635111946.15625,0,0,0.0,0.0,1.0
1635111946.625,0,0,0.0,0.0,1.0
1635111947.09375,0,0,27.878969214792594,0.0,1.0
1635111947.5625,0,0,12.428876296761016,0.0,1.0
1635111948.03125,0,0,0.0,0.0,1.0
1635111948.5,0,0,17.088936705578668,0.0,1.0
1635111948.96875,0,0,0.0,0.0,1.0
1635111949.4375,0,0,10.971583686412995,0.0,1.0
1635111949.90625,0,0,0.0,0.0,1.0
1635111950.375,0,0,18.217225167737542,0.0,1.0
1635111950.84375,0,0,0.0,0.0,1.0
1635111951.3125,0,0,34.27025406579239,0.0,1.0
1635111951.78125,0,0,1.394525394059381,0.0,1.0
1635111952.25,0,0,1.158732563396985,0.0,1.0
1635111952.71875,0,0,18.73611853800671,0.0,1.0
1635111953.1875,0,0,0.0,0.0,1.0
1635111953.65625,0,0,12.50472385492372,0.0,1.0
1635111954.125,0,0,0.0,0.0,1.0
1635111954.59375,0,0,10.997748182948383,0.0,1.0
1635111955.0625,0,0,0.0,0.0,1.0
1635111955.53125,0,0,12.8735010393538,0.0,1.0
1635111956.0,0,0,0.0,0.0,1.0
1635111956.46875,0,0,11.131818090764687,0.0,1.0
1635111956.9375,0,0,13.686452076918862,0.0,1.0
1635111957.40625,0,0,-2.8157991565153853,0.0,1.0
1635111957.875,0,0,18.7547344811067,0.0,1.0
1635111958.34375,0,0,0.0,0.0,1.0
1635111958.8125,0,0,0.0,0.0,1.0
1635111959.28125,0,0,0.0,0.0,1.0
1635111959.75,0,0,28.50785777134212,0.0,1.0
1635111960.21875,0,0,0.0,0.0,1.0
1635111960.6875,0,0,33.63138011366395,0.0,1.0
1635111961.15625,0,0,0.0,0.0,1.0
1635111961.625,0,0,27.036984060295783,0.0,1.0
1635111962.09375,0,0,0.0,0.0,1.0
1635111962.5625,0,0,23.544896293964168,0.0,1.0
1635111963.03125,0,0,5.328886570605814,0.0,1.0
1635111963.5,0,0,5.275707987585041,0.0,1.0
1635111963.96875,0,0,19.167412143044892,0.0,1.0
1635111964.4375,0,0,0.0,0.0,1.0
1635111964.90625,0,0,16.05469865375748,0.0,1.0
1635111965.375,0,0,0.0,0.0,1.0
1635111965.84375,0,0,18.679218740816985,0.0,1.0
1635111966.3125,0,0,0.0,0.0,1.0
1635111966.78125,0,0,30.165706953894368,0.0,1.0
1635111967.25,0,0,0.0,0.0,1.0
1635111967.71875,0,0,11.95419253476474,0.0,1.0
1635111968.1875,0,0,0.0,0.0,1.0
1635111968.65625,0,0,25.783524418440802,0.0,1.0
1635111969.125,0,0,0.0,0.0,1.0
1635111969.59375,0,0,12.619734377163013,0.0,1.0
1635111970.0625,0,0,11.46750564703144,0.0,1.0
1635111970.53125,0,0,10.973454518885509,0.0,1.0
1635111971.0,0,0,0.0,0.0,1.0
1635111971.46875,0,0,11.581436382734308,0.0,1.0
1635111971.9375,0,0,0.0,0.0,1.0
1635111972.40625,0,0,0.0,0.0,1.0
1635111972.875,0,0,14.166132339409595,0.0,1.0
1635111973.34375,0,0,0.0,0.0,1.0
1635111973.8125,0,0,28.76160216752754,0.0,1.0
1635111974.28125,0,0,0.0,0.0,1.0
1635111974.75,0,0,17.166225657334287,0.0,1.0
1635111975.21875,0,0,0.0,0.0,1.0
1635111975.6875,0,0,18.342235621640032,0.0,1.0
1635111976.15625,0,0,0.0,0.0,1.0
1635111976.625,0,0,16.288551124545886,0.0,1.0
1635111977.09375,0,0,26.993971651836823,0.0,1.0
1635111977.5625,0,0,0.0,0.0,1.0
1635111978.03125,0,0,19.980892411015834,0.0,1.0
1635111978.5,0,0,0.0,0.0,1.0
1635111978.96875,0,0,22.958397102397395,0.0,1.0
1635111979.4375,0,0,0.0,0.0,1.0
1635111979.90625,0,0,22.872983480935943,0.0,1.0
1635111980.375,0,0,0.0,0.0,1.0
1635111980.84375,0,0,16.32111647584675,0.0,1.0
1635111981.3125,0,0,19.302923938193572,0.0,1.0
1635111981.78125,0,0,-3.0697298272829903,0.0,1.0
1635111982.25,0,0,16.493376283078856,0.0,1.0
1635111982.71875,0,0,0.0,0.0,1.0
1635111983.1875,0,0,27.409414159256965,0.0,1.0
1635111983.65625,0,0,9.976497128223714,0.0,1.0
1635111984.125,0,0,0.0,0.0,1.0
1635111984.59375,0,0,29.391998237190187,0.0,1.0
1635111985.0625,0,0,0.0,0.0,1.0
1635111985.53125,0,0,9.656660432997288,0.0,1.0
1635111986.0,0,0,0.0,0.0,1.0
1635111986.46875,0,0,14.864995653148577,0.0,1.0
1635111986.9375,0,0,9.036502426294637,0.0,1.0
1635111987.40625,0,0,14.390336125832551,0.0,1.0
1635111987.875,0,0,0.0,0.0,1.0
1635111988.34375,0,0,10.11503690295461,0.0,1.0
1635111988.8125,0,0,17.511082437321853,0.0,1.0
1635111989.28125,0,0,2.010790087399929,0.0,1.0
1635111989.75,0,0,12.624459288729687,0.0,1.0
1635111990.21875,0,0,0.0,0.0,1.0
1635111990.6875,0,0,41.02537558302554,0.0,1.0
1635111991.15625,0,0,0.0,0.0,1.0
1635111991.625,0,0,-3.935061949939851,0.0,1.0
1635111992.09375,0,0,20.493682285735197,0.0,1.0
1635111992.5625,0,0,-2.253288282763451,0.0,1.0
1635111993.03125,0,0,0.0,0.0,1.0
1635111993.5,0,0,83.35166391621924,0.0,1.0
1635111993.96875,0,0,-13.308567816381325,0.0,1.0
1635111994.4375,0,0,-17.71616284585913,0.0,1.0
1635111994.90625,0,0,28.989539172751353,0.0,1.0
1635111995.375,0,0,0.0,0.0,1.0
1635111995.84375,0,0,17.705824793842883,0.0,1.0
1635111996.3125,0,0,0.0,0.0,1.0
1635111996.78125,0,0,31.401426018364404,0.0,1.0
1635111997.25,0,0,0.0,0.0,1.0
1635111997.71875,0,0,19.15575771593635,0.0,1.0
1635111998.1875,0,0,0.0,0.0,1.0
1635111998.65625,0,0,0.0,0.0,1.0
1635111999.125,0,0,8.921821274959676,0.0,1.0
1635111999.59375,0,0,0.0,0.0,1.0
1635112000.0625,0,0,0.0,0.0,1.0
1635112000.53125,0,0,7.613982367066192,0.0,1.0
1635112001.0,0,0,0.0,0.0,1.0
1635112001.46875,0,0,11.948463281805976,0.0,1.0
1635112001.9375,0,0,18.718511411657943,0.0,1.0
1635112002.40625,0,0,15.029105837656362,0.0,1.0
1635112002.875,0,0,0.0,0.0,1.0
1635112003.34375,0,0,12.38815244784619,0.0,1.0
1635112003.8125,0,0,0.0,0.0,1.0
1635112004.28125,0,0,0.0,0.0,1.0
1635112004.75,0,0,14.764779638492103,0.0,1.0
1635112005.21875,0,0,0.0,0.0,1.0
1635112005.6875,0,0,17.10461985838618,0.0,1.0
1635112006.15625,0,0,0.0,0.0,1.0
1635112006.625,0,0,10.769615666489896,0.0,1.0
1635112007.09375,0,0,0.0,0.0,1.0
1635112007.5625,0,0,18.94046399359171,0.0,1.0
1635112008.03125,0,0,0.0,0.0,1.0
1635112008.5,0,0,14.468502242161131,0.0,1.0
1635112008.96875,0,0,0.0,0.0,1.0
1635112009.4375,0,0,0.0,0.0,1.0
1635112009.90625,0,0,18.954572944859866,0.0,1.0
1635112010.375,0,0,0.0,0.0,1.0
1635112010.84375,0,0,16.701385275760366,0.0,1.0
1635112011.3125,0,0,0.0,0.0,1.0
1635112011.78125,0,0,31.348821572034286,0.0,1.0
1635112012.25,0,0,0.0,0.0,1.0
1635112012.71875,0,0,19.46018509303706,0.0,1.0
1635112013.1875,0,0,0.0,0.0,1.0
1635112013.65625,0,0,25.761762451095663,0.0,1.0
1635112014.125,0,0,0.0,0.0,1.0
1635112014.59375,0,0,18.650570540988014,0.0,1.0
1635112015.0625,0,0,0.0,0.0,1.0
1635112015.53125,0,0,16.378974052846473,0.0,1.0
1635112016.0,0,0,15.060571875827199,0.0,1.0
1635112016.46875,0,0,8.141107974726843,0.0,1.0
1635112016.9375,0,0,0.0,0.0,1.0
1635112017.40625,0,0,16.625084988268302,0.0,1.0
1635112017.875,0,0,0.0,0.0,1.0
1635112018.34375,0,0,25.67673355473669,0.0,1.0
1635112018.8125,0,0,0.0,0.0,1.0
1635112019.28125,0,0,0.0,0.0,1.0
1635112019.75,0,0,0.0,0.0,1.0
1635112020.21875,0,0,23.332408253105243,0.0,1.0
1635112020.6875,0,0,0.0,0.0,1.0
1635112021.15625,0,0,0.0,0.0,1.0
1635112021.625,0,0,18.36148916640263,0.0,1.0
1635112022.09375,0,0,0.0,0.0,1.0
1635112022.5625,0,0,13.69358678981751,0.0,1.0
1635112023.03125,0,0,0.0,0.0,1.0
1635112023.5,0,0,20.823031569869084,0.0,1.0
1635112023.96875,0,0,0.0,0.0,1.0
1635112024.4375,0,0,7.306161155611537,0.0,1.0
1635112024.90625,0,0,-1.1948560986050998,0.0,1.0
1635112025.375,0,0,18.01737839432484,0.0,1.0
1635112025.84375,0,0,0.0,0.0,1.0
1635112026.3125,0,0,24.996933121880772,0.0,1.0
1635112026.78125,0,0,0.0,0.0,1.0
1635112027.25,0,0,19.170396678382367,0.0,1.0
1635112027.71875,0,0,0.0,0.0,1.0
1635112028.1875,0,0,13.69908184151108,0.0,1.0
1635112028.65625,0,0,0.0,0.0,1.0
1635112029.125,0,0,19.694570285526797,0.0,1.0
1635112029.59375,0,0,0.0,0.0,1.0
1635112030.0625,0,0,24.45388242553579,0.0,1.0
1635112030.53125,0,0,0.0,0.0,1.0
1635112031.0,0,0,0.0,0.0,1.0
1635112031.46875,0,0,16.469812699720304,0.0,1.0
1635112031.9375,0,0,0.0,0.0,1.0
1635112032.40625,0,0,6.7801423072106894,0.0,1.0
1635112032.875,0,0,0.0,0.0,1.0
1635112033.34375,0,0,17.306947535558262,0.0,1.0
1635112033.8125,0,0,0.0,0.0,1.0
1635112034.28125,0,0,20.73895740568835,0.0,1.0
1635112034.75,0,0,0.0,0.0,1.0
1635112035.21875,0,0,14.95296391738214,0.0,1.0
1635112035.6875,0,0,0.0,0.0,1.0
1635112036.15625,0,0,14.988697692231055,0.0,1.0
1635112036.625,0,0,0.0,0.0,1.0
1635112037.09375,0,0,16.288146486722546,0.0,1.0
1635112037.5625,0,0,16.30945361632952,0.0,1.0
1635112038.03125,0,0,0.0,0.0,1.0
1635112038.5,0,0,9.289991328498312,0.0,1.0
1635112038.96875,0,0,0.0,0.0,1.0
1635112039.4375,0,0,109.21983654705639,0.0,1.0
1635112039.90625,0,0,-20.000611842461296,0.0,1.0
1635112040.375,0,0,29.990633469954616,0.0,1.0
1635112040.84375,0,0,3.6382894266810526,0.0,1.0
1635112041.3125,0,0,9.098824201971535,0.0,1.0
1635112041.78125,0,0,12.58789231708742,0.0,1.0
1635112042.25,0,0,11.627721104159654,0.0,1.0
1635112042.71875,0,0,13.86833448489618,0.0,1.0
1635112043.1875,0,0,10.570575185103301,0.0,1.0
1635112043.65625,0,0,20.673319188909737,0.0,1.0
1635112044.125,0,0,0.0,0.0,1.0
1635112044.59375,0,0,15.159787441010243,0.0,1.0
1635112045.0625,0,0,12.028199218062548,0.0,1.0
1635112045.53125,0,0,0.0,0.0,1.0
1635112046.0,0,0,18.636289158935735,0.0,1.0
1635112046.46875,0,0,0.0,0.0,1.0
1635112046.9375,0,0,0.0,0.0,1.0
1635112047.40625,0,0,15.862700871123803,0.0,1.0
1635112047.875,0,0,13.107317322190791,0.0,1.0
1635112048.34375,0,0,0.0,0.0,1.0
1635112048.8125,0,0,16.437177145258616,0.0,1.0
1635112049.28125,0,0,0.0,0.0,1.0
1635112049.75,0,0,2.513610074878418,0.0,1.0
1635112050.21875,0,0,0.0,0.0,1.0
1635112050.6875,0,0,54.04374459910495,0.0,1.0
1635112051.15625,0,0,0.0,0.0,1.0
1635112051.625,0,0,7.896835206493935,0.0,1.0
1635112052.09375,0,0,60.22421258115935,0.0,1.0
1635112052.5625,0,0,0.0,0.0,1.0
1635112053.03125,0,0,29.822574064881454,0.0,1.0
1635112053.5,0,0,0.0,0.0,1.0
1635112053.96875,0,0,0.0,0.0,1.0
1635112054.4375,0,0,12.911236563858203,0.0,1.0
1635112054.90625,0,0,17.346602187070154,0.0,1.0
1635112055.375,0,0,0.0,0.0,1.0
1635112055.84375,0,0,19.46394239845707,0.0,1.0
1635112056.3125,0,0,0.0,0.0,1.0
1635112056.78125,0,0,17.247760802168138,0.0,1.0
1635112057.25,0,0,0.0,0.0,1.0
1635112057.71875,0,0,6.809489231039397,0.0,1.0
1635112058.1875,0,0,0.0,0.0,1.0
1635112058.65625,0,0,12.95515038470798,0.0,1.0
1635112059.125,0,0,20.164267210775286,0.0,1.0
1635112059.59375,0,0,0.0,0.0,1.0
1635112060.0625,0,0,14.44942271868435,0.0,1.0
1635112060.53125,0,0,0.0,0.0,1.0
1635112061.0,0,0,18.216342674324096,0.0,1.0
1635112061.46875,0,0,0.0,0.0,1.0
1635112061.9375,0,0,14.005518306605298,0.0,1.0
1635112062.40625,0,0,11.920840125304341,0.0,1.0
1635112062.875,0,0,0.0,0.0,1.0
1635112063.34375,0,0,23.434769107100585,0.0,1.0
1635112063.8125,0,0,0.0,0.0,1.0
1635112064.28125,0,0,18.064918874704265,0.0,1.0
1635112064.75,0,0,0.0,0.0,1.0
1635112065.21875,0,0,10.950919382007577,0.0,1.0
1635112065.6875,0,0,0.0,0.0,1.0
1635112066.15625,0,0,12.073527689111298,0.0,1.0
1635112066.625,0,0,11.891464919369117,0.0,1.0
1635112067.09375,0,0,0.0,0.0,1.0
1635112067.5625,0,0,25.079124482315272,0.0,1.0
1635112068.03125,0,0,0.0,0.0,1.0
1635112068.5,0,0,11.784113186452098,0.0,1.0
1635112068.96875,0,0,0.0,0.0,1.0
1635112069.4375,0,0,21.854788478844355,0.0,1.0
1635112069.90625,0,0,0.0,0.0,1.0
1635112070.375,0,0,16.962263686542762,0.0,1.0
1635112070.84375,0,0,0.0,0.0,1.0
1635112071.3125,0,0,21.392182975503868,0.0,1.0
1635112071.78125,0,0,0.0,0.0,1.0
1635112072.25,0,0,15.40397732383419,0.0,1.0
1635112072.71875,0,0,16.434350192807567,0.0,1.0
1635112073.1875,0,0,0.0,0.0,1.0
1635112073.65625,0,0,17.725800563394987,0.0,1.0
1635112074.125,0,0,0.0,0.0,1.0
1635112074.59375,0,0,10.989072871993763,0.0,1.0
1635112075.0625,0,0,0.0,0.0,1.0
1635112075.53125,0,0,30.503144967980873,0.0,1.0
1635112076.0,0,0,0.0,0.0,1.0
1635112076.46875,0,0,21.883332715554527,0.0,1.0
1635112076.9375,0,0,12.40962856989285,0.0,1.0
1635112077.40625,0,0,0.0,0.0,1.0
1635112077.875,0,0,29.36744203922895,0.0,1.0
1635112078.34375,0,0,0.0,0.0,1.0
1635112078.8125,0,0,14.206469256348074,0.0,1.0
1635112079.28125,0,0,0.0,0.0,1.0
1635112079.75,0,0,17.939164500387005,0.0,1.0
1635112080.21875,0,0,0.0,0.0,1.0
1635112080.6875,0,0,11.112408856413602,0.0,1.0
1635112081.15625,0,0,0.0,0.0,1.0
1635112081.625,0,0,18.919630672497913,0.0,1.0
1635112082.09375,0,0,0.0,0.0,1.0
1635112082.5625,0,0,13.220213330581661,0.0,1.0
1635112083.03125,0,0,2.5054531729635126,0.0,1.0
1635112083.5,0,0,25.77241943020391,0.0,1.0
1635112083.96875,0,0,7.421720159432013,0.0,1.0
1635112084.4375,0,0,0.0,0.0,1.0
1635112084.90625,0,0,12.213539683985992,0.0,1.0
1635112085.375,0,0,0.0,0.0,1.0
1635112085.84375,0,0,9.895888227073756,0.0,1.0
1635112086.3125,0,0,0.0,0.0,1.0
1635112086.78125,0,0,10.286160057092484,0.0,1.0
1635112087.25,0,0,0.0,0.0,1.0
1635112087.71875,0,0,21.31588360569132,0.0,1.0
1635112088.1875,0,0,13.48175475138008,0.0,1.0
1635112088.65625,0,0,0.0,0.0,1.0
1635112089.125,0,0,9.051892747244823,0.0,1.0
1635112089.59375,0,0,0.0,0.0,1.0
1635112090.0625,0,0,12.646858291070924,0.0,1.0
1635112090.53125,0,0,0.0,0.0,1.0
1635112091.0,0,0,11.781702553091806,0.0,1.0
1635112091.46875,0,0,37.06838191531539,0.0,1.0
1635112091.9375,0,0,0.0,0.0,1.0
1635112092.40625,0,0,13.179355702843939,0.0,1.0
1635112092.875,0,0,0.0,0.0,1.0
1635112093.34375,0,0,5.978912362475316,0.0,1.0
1635112093.8125,0,0,0.0,0.0,1.0
1635112094.28125,0,0,0.0,0.0,1.0
1635112094.75,0,0,0.0,0.0,1.0
1635112095.21875,0,0,10.485216431147041,0.0,1.0
1635112095.6875,0,0,11.485788424787804,0.0,1.0
1635112096.15625,0,0,0.0,0.0,1.0
1635112096.625,0,0,10.176202311380345,0.0,1.0
1635112097.09375,0,0,0.0,0.0,1.0
1635112097.5625,0,0,26.635168963096817,0.0,1.0
1635112098.03125,0,0,0.0,0.0,1.0
1635112098.5,0,0,95.81951676530548,0.0,1.0
1635112098.96875,0,0,34.10797419054311,0.0,1.0
1635112099.4375,0,0,-4.452787652507976,0.0,1.0
1635112099.90625,0,0,17.04861903675413,0.0,1.0
1635112100.375,0,0,70.66968260171147,0.0,1.0
1635112100.84375,0,0,1.0108062569956646,0.0,1.0
1635112101.3125,0,0,27.889478040054993,0.0,1.0
1635112101.78125,0,0,0.0,0.0,1.0
1635112102.25,0,0,10.570493873364992,0.0,1.0
1635112102.71875,0,0,0.0,0.0,1.0
1635112103.1875,0,0,18.955311452498705,0.0,1.0
1635112103.65625,0,0,0.0,0.0,1.0
1635112104.125,0,0,14.41773817422322,0.0,1.0
1635112104.59375,0,0,0.0,0.0,1.0
1635112105.0625,0,0,0.0,0.0,1.0
1635112105.53125,0,0,55.440649514412904,0.0,1.0
1635112106.0,0,0,29.420629819696273,0.0,1.0
1635112106.46875,0,0,14.148366310981716,0.0,1.0
1635112106.9375,0,0,9.714314001801597,0.0,1.0
1635112107.40625,0,0,0.0,0.0,1.0
1635112107.875,0,0,67.498528254788,0.0,1.0
1635112108.34375,0,0,-6.050667887772081,0.0,1.0
1635112108.8125,0,0,-11.14052862582143,0.0,1.0
1635112109.28125,0,0,-4.592410694400844,0.0,1.0
1635112109.75,0,0,28.631613393013538,0.0,1.0
1635112110.21875,0,0,0.0,0.0,1.0
1635112110.6875,0,0,-3.1344351310037486,0.0,1.0
1635112111.15625,0,0,3.8593479505438415,0.0,1.0
1635112111.625,0,0,49.88562542864281,0.0,1.0
1635112112.09375,0,0,0.0,0.0,1.0
1635112112.5625,0,0,14.798994273350718,0.0,1.0
1635112113.03125,0,0,56.215222325818964,0.0,1.0
1635112113.5,0,0,0.0,0.0,1.0
1635112113.96875,0,0,0.0,0.0,1.0
1635112114.4375,0,0,62.386510923264986,0.0,1.0
1635112114.90625,0,0,0.0,0.0,1.0
1635112115.375,0,0,0.0,0.0,1.0
1635112115.84375,0,0,-3.677815073036143,0.0,1.0
1635112116.3125,0,0,108.58130624474295,0.0,1.0
1635112116.78125,0,0,1.9049405939404989,0.0,1.0
1635112117.25,0,0,13.015025333380555,0.0,1.0
1635112117.71875,0,0,0.0,0.0,1.0
1635112118.1875,0,0,55.54731452993066,0.0,1.0
1635112118.65625,0,0,-19.77665031210761,0.0,1.0
1635112119.125,0,0,16.30574580437552,0.0,1.0
1635112119.59375,0,0,0.0,0.0,1.0
1635112120.0625,0,0,40.083692523867,0.0,1.0
1635112120.53125,0,0,0.0,0.0,1.0
1635112121.0,0,0,10.382599764313285,0.0,1.0
1635112121.46875,0,0,0.0,0.0,1.0
1635112121.9375,0,0,0.0,0.0,1.0
1635112122.40625,0,0,21.608977369361412,0.0,1.0
1635112122.875,0,0,1.5989872286817857,0.0,1.0
1635112123.34375,0,0,0.0,0.0,1.0
1635112123.8125,0,0,11.81968223545082,0.0,1.0
1635112124.28125,0,0,20.982878903833644,0.0,1.0
1635112124.75,0,0,0.0,0.0,1.0
1635112125.21875,0,0,0.0,0.0,1.0
1635112125.6875,0,0,20.504952293617695,0.0,1.0
1635112126.15625,0,0,-7.2540903397919365,0.0,1.0
1635112126.625,0,0,22.87490141132096,0.0,1.0
1635112127.09375,0,0,7.184237839051948,0.0,1.0
1635112127.5625,0,0,0.0,0.0,1.0
1635112128.03125,0,0,22.20183027010707,0.0,1.0
1635112128.5,0,0,0.0,0.0,1.0
1635112128.96875,0,0,0.0,0.0,1.0
1635112129.4375,0,0,0.0,0.0,1.0
1635112129.90625,0,0,0.0,0.0,1.0
1635112130.375,0,0,11.055859222471968,0.0,1.0
1635112130.84375,0,0,20.54986696754095,0.0,1.0
1635112131.3125,0,0,0.0,0.0,1.0
1635112131.78125,0,0,13.856370719145993,0.0,1.0
1635112132.25,0,0,0.0,0.0,1.0
1635112132.71875,0,0,18.819216209519176,0.0,1.0
1635112133.1875,0,0,0.0,0.0,1.0
1635112133.65625,0,0,13.451602659400303,0.0,1.0
1635112134.125,0,0,13.870995987412604,0.0,1.0
1635112134.59375,0,0,3.5593422854758896,0.0,1.0
1635112135.0625,0,0,0.0,0.0,1.0
1635112135.53125,0,0,0.0,0.0,1.0
1635112136.0,0,0,11.3319962777124,0.0,1.0
1635112136.46875,0,0,0.0,0.0,1.0
1635112136.9375,0,0,8.547030124166875,0.0,1.0
1635112137.40625,0,0,0.0,0.0,1.0
1635112137.875,0,0,15.668480295060032,0.0,1.0
1635112138.34375,0,0,0.0,0.0,1.0
1635112138.8125,0,0,12.082867329450353,0.0,1.0
1635112139.28125,0,0,0.0,0.0,1.0
1635112139.75,0,0,11.712873761898027,0.0,1.0
1635112140.21875,0,0,0.0,0.0,1.0
1635112140.6875,0,0,16.426216056995163,0.0,1.0
1635112141.15625,0,0,0.0,0.0,1.0
1635112141.625,0,0,12.582456261621282,0.0,1.0
1635112142.09375,0,0,0.0,0.0,1.0
1635112142.5625,0,0,10.526563497615854,0.0,1.0
1635112143.03125,0,0,0.0,0.0,1.0
1635112143.5,0,0,9.108928685139787,0.0,1.0
1635112143.96875,0,0,0.0,0.0,1.0
1635112144.4375,0,0,0.0,0.0,1.0
1635112144.90625,0,0,0.0,0.0,1.0
1635112145.375,0,0,0.0,0.0,1.0
1635112145.84375,0,0,0.0,0.0,1.0
1635112146.3125,0,0,0.0,0.0,1.0
1635112146.78125,0,0,20.281091559996337,0.0,1.0
1635112147.25,0,0,0.0,0.0,1.0
1635112147.71875,0,0,12.36102934029475,0.0,1.0
1635112148.1875,0,0,0.0,0.0,1.0
1635112148.65625,0,0,13.878811066915256,0.0,1.0
1635112149.125,0,0,4.625421917377661,0.0,1.0
1635112149.59375,0,0,11.278638424704063,0.0,1.0
1635112150.0625,0,0,0.0,0.0,1.0
1635112150.53125,0,0,13.026646807400274,0.0,1.0
1635112151.0,0,0,0.0,0.0,1.0
1635112151.46875,0,0,12.495818411626633,0.0,1.0
1635112151.9375,0,0,0.0,0.0,1.0
1635112152.40625,0,0,17.344089496115505,0.0,1.0
1635112152.875,0,0,1.3223223785091474,0.0,1.0
1635112153.34375,0,0,6.074015131960522,0.0,1.0
1635112153.8125,0,0,13.41468215331817,0.0,1.0
1635112154.28125,0,0,0.0,0.0,1.0
1635112154.75,0,0,16.910487118888078,0.0,1.0
1635112155.21875,0,0,0.0,0.0,1.0
1635112155.6875,0,0,14.692403146255906,0.0,1.0
1635112156.15625,0,0,0.0,0.0,1.0
1635112156.625,0,0,13.275701837760291,0.0,1.0
1635112157.09375,0,0,0.0,0.0,1.0
1635112157.5625,0,0,13.435103344158735,0.0,1.0
1635112158.03125,0,0,0.0,0.0,1.0
1635112158.5,0,0,10.427210335943869,0.0,1.0
1635112158.96875,0,0,4.9002072061118405,0.0,1.0
1635112159.4375,0,0,10.149193122783048,0.0,1.0
1635112159.90625,0,0,0.0,0.0,1.0
1635112160.375,0,0,14.865941778301504,0.0,1.0
1635112160.84375,0,0,0.0,0.0,1.0
1635112161.3125,0,0,25.101832390182995,0.0,1.0
1635112161.78125,0,0,0.0,0.0,1.0
1635112162.25,0,0,11.86497075319203,0.0,1.0
1635112162.71875,0,0,0.0,0.0,1.0
1635112163.1875,0,0,12.421614823059116,0.0,1.0
1635112163.65625,0,0,8.571781141307218,0.0,1.0
1635112164.125,0,0,0.0,0.0,1.0
1635112164.59375,0,0,13.544652229291849,0.0,1.0
1635112165.0625,0,0,0.0,0.0,1.0
1635112165.53125,0,0,11.520941207799078,0.0,1.0
1635112166.0,0,0,0.0,0.0,1.0
1635112166.46875,0,0,11.568038599103115,0.0,1.0
1635112166.9375,0,0,0.0,0.0,1.0
1635112167.40625,0,0,12.871199743968134,0.0,1.0
1635112167.875,0,0,0.0,0.0,1.0
1635112168.34375,0,0,16.683572891661537,0.0,1.0
1635112168.8125,0,0,-19.057227538579046,0.0,1.0
1635112169.28125,0,0,60.203887965691614,0.0,1.0
1635112169.75,0,0,0.0,0.0,1.0
1635112170.21875,0,0,0.0,0.0,1.0
1635112170.6875,0,0,37.757902291356636,0.0,1.0
1635112171.15625,0,0,43.91055542843483,0.0,1.0
1635112171.625,0,0,0.0,0.0,1.0
1635112172.09375,0,0,73.8000591325046,0.0,1.0
1635112172.5625,0,0,0.0,0.0,1.0
1635112173.03125,0,0,21.033120934758422,0.0,1.0
1635112173.5,0,0,0.0,0.0,1.0
1635112173.96875,0,0,68.26155694960111,0.0,1.0
1635112174.4375,0,0,0.0,0.0,1.0
1635112174.90625,0,0,0.0,0.0,1.0
1635112175.375,0,0,89.98292447612096,0.0,1.0
1635112175.84375,0,0,-4.841849887849898,0.0,1.0
1635112176.3125,0,0,3.0532364170948036,0.0,1.0
1635112176.78125,0,0,0.0,0.0,1.0
1635112177.25,0,0,33.27289006599739,0.0,1.0
1635112177.71875,0,0,0.0,0.0,1.0
1635112178.1875,0,0,-20.195903433253022,0.0,1.0
1635112178.65625,0,0,25.80806302107399,0.0,1.0
1635112179.125,0,0,7.9599748812335855,0.0,1.0
1635112179.59375,0,0,7.759761395721705,0.0,1.0
1635112180.0625,0,0,8.058097210503016,0.0,1.0
1635112180.53125,0,0,10.326660610647474,0.0,1.0
1635112181.0,0,0,10.51620764745623,0.0,1.0
1635112181.46875,0,0,11.564355317009401,0.0,1.0
1635112181.9375,0,0,12.092759021933464,0.0,1.0
1635112182.40625,0,0,0.0,0.0,1.0
1635112182.875,0,0,4.321485184734165,0.0,1.0
1635112183.34375,0,0,1.210885135038824,0.0,1.0
1635112183.8125,0,0,26.754466260986025,0.0,1.0
1635112184.28125,0,0,0.0,0.0,1.0
1635112184.75,0,0,14.743929671708907,0.0,1.0
1635112185.21875,0,0,5.964444989445894,0.0,1.0
1635112185.6875,0,0,5.700423024171995,0.0,1.0
1635112186.15625,0,0,0.0,0.0,1.0
1635112186.625,0,0,8.965935888244486,0.0,1.0
1635112187.09375,0,0,0.0,0.0,1.0
1635112187.5625,0,0,6.605348301759895,0.0,1.0
1635112188.03125,0,0,34.08613413953845,0.0,1.0
1635112188.5,0,0,0.0,0.0,1.0
1635112188.96875,0,0,0.0,0.0,1.0
1635112189.4375,0,0,13.543052724926689,0.0,1.0
1635112189.90625,0,0,0.0,0.0,1.0
1635112190.375,0,0,14.246369300078051,0.0,1.0
1635112190.84375,0,0,0.0,0.0,1.0
1635112191.3125,0,0,13.349775169665634,0.0,1.0
1635112191.78125,0,0,9.668652574266888,0.0,1.0
1635112192.25,0,0,21.614343735327513,0.0,1.0
1635112192.71875,0,0,8.179418346397263,0.0,1.0
1635112193.1875,0,0,12.215599883216287,0.0,1.0
1635112193.65625,0,0,8.545248511956757,0.0,1.0
1635112194.125,0,0,0.0,0.0,1.0
1635112194.59375,0,0,12.940754074613375,0.0,1.0
1635112195.0625,0,0,0.0,0.0,1.0
1635112195.53125,0,0,17.79059071347284,0.0,1.0
1635112196.0,0,0,0.0,0.0,1.0
1635112196.46875,0,0,37.25940301209436,0.0,1.0
1635112196.9375,0,0,-14.034126193354982,0.0,1.0
1635112197.40625,0,0,13.063344047115864,0.0,1.0
1635112197.875,0,0,0.0,0.0,1.0
1635112198.34375,0,0,36.44117977117454,0.0,1.0
1635112198.8125,0,0,0.0,0.0,1.0
1635112199.28125,0,0,12.327302383179404,0.0,1.0
1635112199.75,0,0,0.0,0.0,1.0
1635112200.21875,0,0,23.157281302587812,0.0,1.0
1635112200.6875,0,0,8.81442425121712,0.0,1.0
1635112201.15625,0,0,0.0,0.0,1.0
1635112201.625,0,0,14.654451417957338,0.0,1.0
1635112202.09375,0,0,4.2867250856239885,0.0,1.0
1635112202.5625,0,0,1.3510659693153462,0.0,1.0
1635112203.03125,0,0,0.0,0.0,1.0
1635112203.5,0,0,17.763132247311454,0.0,1.0
1635112203.96875,0,0,0.0,0.0,1.0
1635112204.4375,0,0,11.482908974215386,0.0,1.0
1635112204.90625,0,0,0.0,0.0,1.0
1635112205.375,0,0,0.0,0.0,1.0
1635112205.84375,0,0,7.4673931487336045,0.0,1.0
1635112206.3125,0,0,1.986612625781667,0.0,1.0
1635112206.78125,0,0,8.32195104577875,0.0,1.0
1635112207.25,0,0,9.792850896076004,0.0,1.0
1635112207.71875,0,0,11.051208237684778,0.0,1.0
1635112208.1875,0,0,25.370618703294333,0.0,1.0
1635112208.65625,0,0,-3.7593168009594926,0.0,1.0
1635112209.125,0,0,12.801903247487285,0.0,1.0
1635112209.59375,0,0,0.0,0.0,1.0
1635112210.0625,0,0,12.872562274940213,0.0,1.0
1635112210.53125,0,0,18.702607704185297,0.0,1.0
1635112211.0,0,0,11.76702647441819,0.0,1.0
1635112211.46875,0,0,0.0,0.0,1.0
1635112211.9375,0,0,11.821652049523124,0.0,1.0
1635112212.40625,0,0,19.702072705718827,0.0,1.0
1635112212.875,0,0,6.359774363397997,0.0,1.0
1635112213.34375,0,0,0.0,0.0,1.0
1635112213.8125,0,0,13.107595347406797,0.0,1.0
1635112214.28125,0,0,0.0,0.0,1.0
1635112214.75,0,0,0.0,0.0,1.0
1635112215.21875,0,0,11.702806519688451,0.0,1.0
1635112215.6875,0,0,0.0,0.0,1.0
1635112216.15625,0,0,21.128195144545266,0.0,1.0
1635112216.625,0,0,0.0,0.0,1.0
1635112217.09375,0,0,11.307558208791438,0.0,1.0
1635112217.5625,0,0,0.0,0.0,1.0
1635112218.03125,0,0,0.0,0.0,1.0
1635112218.5,0,0,12.867868049808319,0.0,1.0
1635112218.96875,0,0,0.0,0.0,1.0
1635112219.4375,0,0,9.29376907006872,0.0,1.0
1635112219.90625,0,0,11.05219080595417,0.0,1.0
1635112220.375,0,0,0.0,0.0,1.0
1635112220.84375,0,0,11.112304746876669,0.0,1.0
1635112221.3125,0,0,0.0,0.0,1.0
1635112221.78125,0,0,13.16865290281492,0.0,1.0
1635112222.25,0,0,0.0,0.0,1.0
1635112222.71875,0,0,13.158304892566955,0.0,1.0
1635112223.1875,0,0,0.0,0.0,1.0
1635112223.65625,0,0,0.0,0.0,1.0
1635112224.125,0,0,13.661166109977666,0.0,1.0
1635112224.59375,0,0,0.0,0.0,1.0
1635112225.0625,0,0,4.355550908318766,0.0,1.0
1635112225.53125,0,0,8.102587342199904,0.0,1.0
1635112226.0,0,0,9.619379773706735,0.0,1.0
1635112226.46875,0,0,0.0,0.0,1.0
1635112226.9375,0,0,10.183565054345943,0.0,1.0
1635112227.40625,0,0,13.086379803371901,0.0,1.0
1635112227.875,0,0,0.0,0.0,1.0
1635112228.34375,0,0,0.0,0.0,1.0
1635112228.8125,0,0,15.858437287685655,0.0,1.0
1635112229.28125,0,0,7.864285225666228,0.0,1.0
1635112229.75,0,0,0.0,0.0,1.0
1635112230.21875,0,0,14.00044066049322,0.0,1.0
1635112230.6875,0,0,0.0,0.0,1.0
1635112231.15625,0,0,34.66557945557145,0.0,1.0
1635112231.625,0,0,0.0,0.0,1.0
1635112232.09375,0,0,22.780852030549067,0.0,1.0
1635112232.5625,0,0,0.0,0.0,1.0
1635112233.03125,0,0,30.672715032248195,0.0,1.0
1635112233.5,0,0,10.200130715104413,0.0,1.0
1635112233.96875,0,0,0.0,0.0,1.0
1635112234.4375,0,0,14.82919245653154,0.0,1.0
1635112234.90625,0,0,0.0,0.0,1.0
1635112235.375,0,0,-16.311797457384294,0.0,1.0
1635112235.84375,0,0,23.460603475466915,0.0,1.0
1635112236.3125,0,0,0.0,0.0,1.0
1635112236.78125,0,0,17.40698938533476,0.0,1.0
1635112237.25,0,0,15.376812332153472,0.0,1.0
1635112237.71875,0,0,12.413417778545545,0.0,1.0
1635112238.1875,0,0,0.0,0.0,1.0
1635112238.65625,0,0,9.594531745241934,0.0,1.0
1635112239.125,0,0,6.324406679416306,0.0,1.0
1635112239.59375,0,0,10.331001936688443,0.0,1.0
1635112240.0625,0,0,0.0,0.0,1.0
1635112240.53125,0,0,4.897057951705018,0.0,1.0
1635112241.0,0,0,14.546476015114198,0.0,1.0
1635112241.46875,0,0,17.49638849687101,0.0,1.0
1635112241.9375,0,0,3.8356620657197813,0.0,1.0
1635112242.40625,0,0,0.0,0.0,1.0
1635112242.875,0,0,13.081216782289706,0.0,1.0
1635112243.34375,0,0,24.22632105501691,0.0,1.0
1635112243.8125,0,0,-3.23185489205401,0.0,1.0
1635112244.28125,0,0,12.384432580448477,0.0,1.0
1635112244.75,0,0,0.0,0.0,1.0
1635112245.21875,0,0,27.09221164854898,0.0,1.0
1635112245.6875,0,0,0.0,0.0,1.0
1635112246.15625,0,0,14.832727456499457,0.0,1.0
1635112246.625,0,0,0.0,0.0,1.0
1635112247.09375,0,0,19.20962027734142,0.0,1.0
1635112247.5625,0,0,0.0,0.0,1.0
1635112248.03125,0,0,14.318203794427879,0.0,1.0
1635112248.5,0,0,13.468462650572919,0.0,1.0
1635112248.96875,0,0,0.0,0.0,1.0
1635112249.4375,0,0,16.895095611170657,0.0,1.0
1635112249.90625,0,0,0.0,0.0,1.0
1635112250.375,0,0,11.872621103230657,0.0,1.0
1635112250.84375,0,0,0.0,0.0,1.0
1635112251.3125,0,0,11.245729427541178,0.0,1.0
1635112251.78125,0,0,7.7746626039263385,0.0,1.0
1635112252.25,0,0,17.593602445771047,0.0,1.0
1635112252.71875,0,0,0.0,0.0,1.0
1635112253.1875,0,0,12.122693877436514,0.0,1.0
1635112253.65625,0,0,24.714147000425523,0.0,1.0
1635112254.125,0,0,0.0,0.0,1.0
1635112254.59375,0,0,16.103183835120348,0.0,1.0
1635112255.0625,0,0,0.0,0.0,1.0
1635112255.53125,0,0,23.111626816735793,0.0,1.0
1635112256.0,0,0,0.0,0.0,1.0
1635112256.46875,0,0,18.976354631092963,0.0,1.0
1635112256.9375,0,0,0.0,0.0,1.0
1635112257.40625,0,0,11.469151153012383,0.0,1.0
1635112257.875,0,0,13.787403076322645,0.0,1.0
1635112258.34375,0,0,0.0,0.0,1.0
1635112258.8125,0,0,12.504438191150538,0.0,1.0
1635112259.28125,0,0,0.0,0.0,1.0
1635112259.75,0,0,15.417343280388602,0.0,1.0
1635112260.21875,0,0,0.0,0.0,1.0
1635112260.6875,0,0,14.167039529293696,0.0,1.0
1635112261.15625,0,0,0.0,0.0,1.0
1635112261.625,0,0,17.199935050946323,0.0,1.0
1635112262.09375,0,0,0.0,0.0,1.0
1635112262.5625,0,0,0.0,0.0,1.0
1635112263.03125,0,0,10.542907109333028,0.0,1.0
1635112263.5,0,0,0.0,0.0,1.0
1635112263.96875,0,0,15.684744274892031,0.0,1.0
1635112264.4375,0,0,0.0,0.0,1.0
1635112264.90625,0,0,14.720278681736103,0.0,1.0
1635112265.375,0,0,11.492602745475946,0.0,1.0
1635112265.84375,0,0,20.30165220501349,0.0,1.0
1635112266.3125,0,0,14.70816199952183,0.0,1.0
1635112266.78125,0,0,0.0,0.0,1.0
1635112267.25,0,0,15.736092791330272,0.0,1.0
1635112267.71875,0,0,0.0,0.0,1.0
1635112268.1875,0,0,15.6385954661304,0.0,1.0
1635112268.65625,0,0,0.0,0.0,1.0
1635112269.125,0,0,12.120306836321488,0.0,1.0
1635112269.59375,0,0,31.33929416893208,0.0,1.0
1635112270.0625,0,0,0.0,0.0,1.0
1635112270.53125,0,0,19.170500001600175,0.0,1.0
1635112271.0,0,0,0.0,0.0,1.0
1635112271.46875,0,0,9.397973099604787,0.0,1.0
1635112271.9375,0,0,0.0,0.0,1.0
1635112272.40625,0,0,15.437397738326046,0.0,1.0
1635112272.875,0,0,9.025375888555901,0.0,1.0
1635112273.34375,0,0,0.0,0.0,1.0
1635112273.8125,0,0,24.005265619003918,0.0,1.0
1635112274.28125,0,0,-1.163283339907713,0.0,1.0
1635112274.75,0,0,17.835517893806887,0.0,1.0
1635112275.21875,0,0,0.0,0.0,1.0
1635112275.6875,0,0,44.72238268186342,0.0,1.0
1635112276.15625,0,0,29.522275015431966,0.0,1.0
1635112276.625,0,0,-0.030062660464659843,0.0,1.0
1635112277.09375,0,0,18.998674311214064,0.0,1.0
1635112277.5625,0,0,68.50734449887533,0.0,1.0
1635112278.03125,0,0,8.12325356917014,0.0,1.0
1635112278.5,0,0,25.14363477009443,0.0,1.0
1635112278.96875,0,0,10.64346382205145,0.0,1.0
1635112279.4375,0,0,25.327941295860676,0.0,1.0
1635112279.90625,0,0,8.424631386438781,0.0,1.0
1635112280.375,0,0,19.02935743931857,0.0,1.0
1635112280.84375,0,0,36.28461906290955,0.0,1.0
1635112281.3125,0,0,25.480391040805614,0.0,1.0
1635112281.78125,0,0,41.0117234285001,0.0,1.0
1635112282.25,0,0,38.92256509753822,0.0,1.0
1635112282.71875,0,0,106.5365657855537,0.0,1.0
1635112283.1875,0,0,37.1759108606424,0.0,1.0
1635112283.65625,0,0,103.14990602812485,0.0,1.0
1635112284.125,0,0,0.0,0.0,1.0
1635112284.59375,0,0,92.72599175468892,0.0,1.0
1635112285.0625,0,0,82.98643104586834,0.0,1.0
1635112285.53125,0,0,46.80700079666357,0.0,1.0
1635112286.0,0,0,3.674715608384488,0.0,1.0
1635112286.46875,0,0,-16.760576418928927,0.0,1.0
1635112286.9375,0,0,78.1181417305496,0.0,1.0
1635112287.40625,0,0,19.555095014025778,0.0,1.0
1635112287.875,0,0,0.0,0.0,1.0
1635112288.34375,0,0,39.15942694517478,0.0,1.0
1635112288.8125,0,0,23.801748522627015,0.0,1.0
1635112289.28125,0,0,-10.876701666908566,0.0,1.0
1635112289.75,0,0,-17.50694969996042,0.0,1.0
1635112290.21875,0,0,43.10341935286832,0.0,1.0
1635112290.6875,0,0,2.0589924993481277,0.0,1.0
1635112291.15625,0,0,50.14211388803001,0.0,1.0
1635112291.625,0,0,0.0,0.0,1.0
1635112292.09375,0,0,25.306343192490505,0.0,1.0
1635112292.5625,0,0,0.0,0.0,1.0
1635112293.03125,0,0,8.965050727150006,0.0,1.0
1635112293.5,0,0,25.134070931050672,0.0,1.0
1635112293.96875,0,0,0.0,0.0,1.0
1635112294.4375,0,0,15.342598710398775,0.0,1.0
1635112294.90625,0,0,0.0,0.0,1.0
1635112295.375,0,0,45.29111821061777,0.0,1.0
1635112295.84375,0,0,-1.1518688276034847,0.0,1.0
1635112296.3125,0,0,11.76207232491796,0.0,1.0
1635112296.78125,0,0,0.0,0.0,1.0
1635112297.25,0,0,20.35129073007214,0.0,1.0
1635112297.71875,0,0,0.0,0.0,1.0
1635112298.1875,0,0,9.848987088410183,0.0,1.0
1635112298.65625,0,0,0.0,0.0,1.0
1635112299.125,0,0,49.15870717242538,0.0,1.0
1635112299.59375,0,0,-8.379801755154084,0.0,1.0
1635112300.0625,0,0,20.60353189573228,0.0,1.0
1635112300.53125,0,0,0.0,0.0,1.0
1635112301.0,0,0,-28.085809965467757,0.0,1.0
1635112301.46875,0,0,66.20254188316721,0.0,1.0
1635112301.9375,0,0,-4.610074615879494,0.0,1.0
1635112302.40625,0,0,0.0,0.0,1.0
1635112302.875,0,0,18.146025717744664,0.0,1.0
1635112303.34375,0,0,0.0,0.0,1.0
1635112303.8125,0,0,0.0,0.0,1.0
1635112304.28125,0,0,20.62450400956903,0.0,1.0
1635112304.75,0,0,0.0,0.0,1.0
1635112305.21875,0,0,13.519084738666123,0.0,1.0
1635112305.6875,0,0,0.0,0.0,1.0
1635112306.15625,0,0,0.0,0.0,1.0
1635112306.625,0,0,65.46629471811329,0.0,1.0
1635112307.09375,0,0,0.0,0.0,1.0
1635112307.5625,0,0,0.0,0.0,1.0
1635112308.03125,0,0,0.0,0.0,1.0
1635112308.5,0,0,0.6892262109643127,0.0,1.0
1635112308.96875,0,0,64.36342860566366,0.0,1.0
1635112309.4375,0,0,0.0,0.0,1.0
1635112309.90625,0,0,5.082370791952203,0.0,1.0
1635112310.375,0,0,0.0,0.0,1.0
1635112310.84375,0,0,23.511170745018877,0.0,1.0
1635112311.3125,0,0,0.0,0.0,1.0
1635112311.78125,0,0,0.0,0.0,1.0
1635112312.25,0,0,7.187411418022624,0.0,1.0
1635112312.71875,0,0,-1.794362183552259,0.0,1.0
1635112313.1875,0,0,36.636121178541956,0.0,1.0
1635112313.65625,0,0,0.0,0.0,1.0
1635112314.125,0,0,10.014649245332249,0.0,1.0
1635112314.59375,0,0,0.0,0.0,1.0
1635112315.0625,0,0,44.83088875422204,0.0,1.0
1635112315.53125,0,0,0.0,0.0,1.0
1635112316.0,0,0,10.220927367545416,0.0,1.0
1635112316.46875,0,0,0.0,0.0,1.0
1635112316.9375,0,0,44.67137419748165,0.0,1.0
1635112317.40625,0,0,0.0,0.0,1.0
1635112317.875,0,0,1.3481523818653025,0.0,1.0
1635112318.34375,0,0,0.0,0.0,1.0
1635112318.8125,0,0,28.862090385993948,0.0,1.0
1635112319.28125,0,0,-3.5981457728440223,0.0,1.0
1635112319.75,0,0,0.052013362673337615,0.0,1.0
1635112320.21875,0,0,0.0,0.0,1.0
1635112320.6875,0,0,22.25458312848754,0.0,1.0
1635112321.15625,0,0,6.4508894048973,0.0,1.0
1635112321.625,0,0,0.0,0.0,1.0
1635112322.09375,0,0,10.507665679381699,0.0,1.0
1635112322.5625,0,0,0.0,0.0,1.0
1635112323.03125,0,0,15.599622045648525,0.0,1.0
1635112323.5,0,0,0.0,0.0,1.0
1635112323.96875,0,0,13.434771175730386,0.0,1.0
1635112324.4375,0,0,16.580536619151054,0.0,1.0
1635112324.90625,0,0,13.979534801589061,0.0,1.0
1635112325.375,0,0,0.0,0.0,1.0
1635112325.84375,0,0,18.75619897872915,0.0,1.0
1635112326.3125,0,0,3.9227481999129434,0.0,1.0
1635112326.78125,0,0,4.306652422253702,0.0,1.0
1635112327.25,0,0,14.585930461666234,0.0,1.0
1635112327.71875,0,0,0.0,0.0,1.0
1635112328.1875,0,0,4.649637866430139,0.0,1.0
1635112328.65625,0,0,0.0,0.0,1.0
1635112329.125,0,0,60.016985555784004,0.0,1.0
1635112329.59375,0,0,0.0,0.0,1.0
1635112330.0625,0,0,8.108154450087907,0.0,1.0
1635112330.53125,0,0,0.0,0.0,1.0
1635112331.0,0,0,12.793141995101978,0.0,1.0
1635112331.46875,0,0,0.0,0.0,1.0
1635112331.9375,0,0,0.0,0.0,1.0
1635112332.40625,0,0,8.872472763735122,0.0,1.0
1635112332.875,0,0,-5.578220138539391,0.0,1.0
1635112333.34375,0,0,12.54263075985896,0.0,1.0
1635112333.8125,0,0,0.0,0.0,1.0
1635112334.28125,0,0,14.898465623672736,0.0,1.0
1635112334.75,0,0,0.0,0.0,1.0
1635112335.21875,0,0,34.85211139803963,0.0,1.0
1635112335.6875,0,0,5.08536250551558,0.0,1.0
1635112336.15625,0,0,15.879776493390947,0.0,1.0
1635112336.625,0,0,17.874666517384984,0.0,1.0
1635112337.09375,0,0,9.578311914270447,0.0,1.0
1635112337.5625,0,0,8.071548523157492,0.0,1.0
1635112338.03125,0,0,0.0,0.0,1.0
1635112338.5,0,0,19.703243892609947,0.0,1.0
1635112338.96875,0,0,6.844735766166242,0.0,1.0
1635112339.4375,0,0,10.939939869357843,0.0,1.0
1635112339.90625,0,0,10.539137312048556,0.0,1.0
1635112340.375,0,0,0.0,0.0,1.0
1635112340.84375,0,0,20.850864570016235,0.0,1.0
1635112341.3125,0,0,0.0,0.0,1.0
1635112341.78125,0,0,10.542933104972244,0.0,1.0
1635112342.25,0,0,0.0,0.0,1.0
1635112342.71875,0,0,12.029715344381511,0.0,1.0
1635112343.1875,0,0,0.0,0.0,1.0
1635112343.65625,0,0,6.4916438465360935,0.0,1.0
1635112344.125,0,0,9.724919177217688,0.0,1.0
1635112344.59375,0,0,0.0,0.0,1.0
1635112345.0625,0,0,14.528276198973776,0.0,1.0
1635112345.53125,0,0,0.0,0.0,1.0
1635112346.0,0,0,-24.983905731635858,0.0,1.0
1635112346.46875,0,0,115.04932504531172,0.0,1.0
1635112346.9375,0,0,-36.00310588362021,0.0,1.0
1635112347.40625,0,0,124.80410755177176,0.0,1.0
1635112347.875,0,0,43.83722257116919,0.0,1.0
1635112348.34375,0,0,0.0,0.0,1.0
1635112348.8125,0,0,126.57053684597966,0.0,1.0
1635112349.28125,0,0,0.0,0.0,2.0
1635112349.75,0,0,127.32206066185121,0.0,2.0
1635112350.21875,0,0,0.0,0.0,2.0
1635112350.6875,0,0,157.85120935304795,0.0,2.0
1635112351.15625,0,0,49.836449652264534,0.0,2.0
1635112351.625,0,0,-4.710856116137078,0.0,2.0
1635112352.09375,0,0,50.28348820530431,0.0,2.0
1635112352.5625,0,0,34.81659212040733,0.0,2.0
1635112353.03125,0,0,39.57888635140723,0.0,2.0
1635112353.5,0,0,58.734403412861404,0.0,2.0
1635112353.96875,0,0,41.2415971200647,0.0,2.0
1635112354.4375,0,0,0.0,0.0,2.0
1635112354.90625,0,0,0.0,0.0,2.0
1635112355.375,0,0,14.994398254484382,0.0,2.0
1635112355.84375,0,0,0.0,0.0,2.0
1635112356.3125,0,0,70.80536275063015,0.0,2.0
1635112356.78125,0,0,0.0,0.0,2.0
1635112357.25,0,0,86.9875130323366,0.0,2.0
1635112357.71875,0,0,6.169721123728183,0.0,2.0
1635112358.1875,0,0,0.0,0.0,2.0
1635112358.65625,0,0,33.61774612320408,0.0,2.0
1635112359.125,0,0,0.0,0.0,2.0
1635112359.59375,0,0,8.611342451391021,0.0,2.0
1635112360.0625,0,0,11.656506759503872,0.0,2.0
1635112360.53125,0,0,0.0,0.0,2.0
1635112361.0,0,0,12.580591820549653,0.0,2.0
1635112361.46875,0,0,8.513322223134288,0.0,2.0
1635112361.9375,0,0,0.0,0.0,2.0
1635112362.40625,0,0,9.113546697056375,0.0,2.0
1635112362.875,0,0,24.10169343991228,0.0,2.0
1635112363.34375,0,0,0.0,0.0,2.0
1635112363.8125,0,0,1.4317457725491751,0.0,2.0
1635112364.28125,0,0,0.0,0.0,2.0
1635112364.75,0,0,16.51167698947118,0.0,2.0
1635112365.21875,0,0,-6.509263442922341,0.0,2.0
1635112365.6875,0,0,0.6117223308804193,0.0,2.0
1635112366.15625,0,0,18.114133404616304,0.0,2.0
1635112366.625,0,0,19.71029583868284,0.0,2.0
1635112367.09375,0,0,0.0,0.0,2.0
1635112367.5625,0,0,0.0,0.0,2.0
1635112368.03125,0,0,87.62253772961563,0.0,2.0
1635112368.5,0,0,28.569899121444944,0.0,2.0
1635112368.96875,0,0,34.84361820623001,0.0,2.0
1635112369.4375,0,0,41.38538929035374,0.0,2.0
1635112369.90625,0,0,0.0,0.0,2.0
1635112370.375,0,0,4.932309267854927,0.0,2.0
1635112370.84375,0,0,3.1079136169294275,0.0,2.0
1635112371.3125,0,0,10.107983726457668,0.0,2.0
1635112371.78125,0,0,0.0,0.0,2.0
1635112372.25,0,0,9.551409073979642,0.0,2.0
1635112372.71875,0,0,0.0,0.0,2.0
1635112373.1875,0,0,0.0,0.0,2.0
1635112373.65625,0,0,9.811151643648792,0.0,2.0
1635112374.125,0,0,0.0,0.0,2.0
1635112374.59375,0,0,10.269047632477557,0.0,2.0
1635112375.0625,0,0,0.0,0.0,2.0
1635112375.53125,0,0,7.918093432691828,0.0,2.0
1635112376.0,0,0,8.287236611925097,0.0,2.0
1635112376.46875,0,0,0.0,0.0,2.0
1635112376.9375,0,0,11.446060158575536,0.0,2.0
1635112377.40625,0,0,0.0,0.0,2.0
1635112377.875,0,0,1.140035748250894,0.0,2.0
1635112378.34375,0,0,109.09200570198733,0.0,2.0
1635112378.8125,0,0,39.80448759385011,0.0,2.0
1635112379.28125,0,0,23.277679977268818,0.0,2.0
1635112379.75,0,0,31.86641238947521,0.0,2.0
1635112380.21875,0,0,28.408874450674592,0.0,2.0
1635112380.6875,0,0,0.0,0.0,2.0
1635112381.15625,0,0,-8.861486000035136,0.0,2.0
1635112381.625,0,0,0.0,0.0,2.0
1635112382.09375,0,0,257.10118784011206,0.0,2.0
1635112382.5625,0,0,0.0,0.0,2.0
1635112383.03125,0,0,94.95148636315896,0.0,2.0
1635112383.5,0,0,0.0,0.0,2.0
1635112383.96875,0,0,102.40631727825469,0.0,2.0
1635112384.4375,0,0,27.248502394177617,0.0,2.0
1635112384.90625,0,0,-2.977369868456477,0.0,2.0
1635112385.375,0,0,32.07226356816531,0.0,2.0
1635112385.84375,0,0,0.0,0.0,2.0
1635112386.3125,0,0,23.012495908749084,0.0,2.0
1635112386.78125,0,0,70.19436253947414,0.0,2.0
1635112387.25,0,0,0.0,0.0,2.0
1635112387.71875,0,0,50.50113894318895,0.0,2.0
1635112388.1875,0,0,-12.034897536883618,0.0,2.0
1635112388.65625,0,0,13.773570794635846,0.0,2.0
1635112389.125,0,0,0.0,0.0,2.0
1635112389.59375,0,0,12.18260294594356,0.0,2.0
1635112390.0625,0,0,8.636204349057127,0.0,2.0
1635112390.53125,0,0,0.0,0.0,2.0
1635112391.0,0,0,34.11023375359454,0.0,2.0
1635112391.46875,0,0,26.790162795571376,0.0,2.0
1635112391.9375,0,0,28.107073787966065,0.0,2.0
1635112392.40625,0,0,93.07847468974072,0.0,2.0
1635112392.875,0,0,-24.00372880296586,0.0,2.0
1635112393.34375,0,0,93.92030722469805,0.0,2.0
1635112393.8125,0,0,143.36491872868976,0.0,2.0
1635112394.28125,0,0,0.0,0.0,2.0
1635112394.75,0,0,9.615693030910137,0.0,2.0
1635112395.21875,0,0,0.0,0.0,2.0
1635112395.6875,0,0,87.69886307267984,0.0,2.0
1635112396.15625,0,0,36.16618971609894,0.0,2.0
1635112396.625,0,0,0.0,0.0,2.0
1635112397.09375,0,0,62.704331486756054,0.0,2.0
1635112397.5625,0,0,0.0,0.0,2.0
1635112398.03125,0,0,75.9256559692997,0.0,2.0
1635112398.5,0,0,38.772232090081495,0.0,2.0
1635112398.96875,0,0,19.514487911338808,0.0,2.0
1635112399.4375,0,0,20.7300443633344,0.0,2.0
1635112399.90625,0,0,35.55320422690385,0.0,2.0
1635112400.375,0,0,32.57688809935467,0.0,2.0
1635112400.84375,0,0,26.43464779670341,0.0,2.0
1635112401.3125,0,0,68.53360226834789,0.0,2.0
1635112401.78125,0,0,-14.644662001123619,0.0,2.0
1635112402.25,0,0,103.16142466998791,0.0,2.0
1635112402.71875,0,0,0.0,0.0,2.0
1635112403.1875,0,0,148.37268804990285,0.0,2.0
1635112403.65625,0,0,13.795465857394387,0.0,2.0
1635112404.125,0,0,0.0,0.0,2.0
1635112404.59375,0,0,45.25683518183989,0.0,2.0
1635112405.0625,0,0,35.44344283653927,0.0,2.0
1635112405.53125,0,0,22.95505987166866,0.0,2.0
1635112406.0,0,0,18.080770679212897,0.0,2.0
1635112406.46875,0,0,116.39751808034684,0.0,2.0
1635112406.9375,0,0,0.0,0.0,2.0
1635112407.40625,0,0,76.03550179185432,0.0,2.0
1635112407.875,0,0,25.56756822503717,0.0,2.0
1635112408.34375,0,0,34.68789202574008,0.0,2.0
1635112408.8125,0,0,52.66772269284933,0.0,2.0
1635112409.28125,0,0,0.0,0.0,2.0
1635112409.75,0,0,88.18655094643081,0.0,2.0
1635112410.21875,0,0,-12.062931443652133,0.0,2.0
1635112410.6875,0,0,92.27008249102916,0.0,2.0
1635112411.15625,0,0,0.0,0.0,2.0
1635112411.625,0,0,97.15944564103853,0.0,2.0
1635112412.09375,0,0,0.0,0.0,2.0
1635112412.5625,0,0,1.1060817203778242,0.0,2.0
1635112413.03125,0,0,0.0,0.0,2.0
1635112413.5,0,0,44.25613515310361,0.0,2.0
1635112413.96875,0,0,0.19037139954781013,0.0,2.0
1635112414.4375,0,0,64.01689989833721,0.0,2.0
1635112414.90625,0,0,83.41782746716876,0.0,2.0
1635112415.375,0,0,0.0,0.0,2.0
1635112415.84375,0,0,75.71609705470787,0.0,2.0
1635112416.3125,0,0,0.0,0.0,2.0
1635112416.78125,0,0,99.03992299927116,0.0,2.0
1635112417.25,0,0,0.0,0.0,2.0
1635112417.71875,0,0,61.095797371016936,0.0,2.0
1635112418.1875,0,0,0.0,0.0,2.0
1635112418.65625,0,0,73.2504458651016,0.0,2.0
1635112419.125,0,0,0.0,0.0,2.0
1635112419.59375,0,0,0.0,0.0,2.0
1635112420.0625,0,0,89.75943860916942,0.0,2.0
1635112420.53125,0,0,0.0,0.0,2.0
1635112421.0,0,0,81.37149528892976,0.0,2.0
1635112421.46875,0,0,0.0,0.0,2.0
1635112421.9375,0,0,90.38280021700709,0.0,2.0
1635112422.40625,0,0,0.0,0.0,2.0
1635112422.875,0,0,111.27109571381436,0.0,2.0
1635112423.34375,0,0,0.0,0.0,2.0
1635112423.8125,0,0,0.0,0.0,2.0
1635112424.28125,0,0,92.97514364798549,0.0,2.0
1635112424.75,0,0,0.0,0.0,2.0
1635112425.21875,0,0,89.64590574676744,0.0,2.0
1635112425.6875,0,0,0.0,0.0,2.0
1635112426.15625,0,0,87.33298318255655,0.0,2.0
1635112426.625,0,0,0.0,0.0,2.0
1635112427.09375,0,0,100.60192220540205,0.0,2.0
1635112427.5625,0,0,0.0,0.0,2.0
1635112428.03125,0,0,137.73307198188968,0.0,2.0
1635112428.5,0,0,0.0,0.0,2.0
1635112428.96875,0,0,105.99881742238611,0.0,2.0
1635112429.4375,0,0,0.0,0.0,2.0
1635112429.90625,0,0,103.98975369445078,0.0,2.0
1635112430.375,0,0,106.64779333368831,0.0,2.0
1635112430.84375,0,0,0.0,0.0,2.0
1635112431.3125,0,0,102.03650820216075,0.0,2.0
1635112431.78125,0,0,0.0,0.0,2.0
1635112432.25,0,0,-66.12210824524382,0.0,2.0
1635112432.71875,0,0,52.50596961623731,0.0,2.0
1635112433.1875,0,0,0.0,0.0,2.0
1635112433.65625,0,0,0.0,0.0,2.0
1635112434.125,0,0,103.7649793969258,0.0,2.0
1635112434.59375,0,0,0.0,0.0,2.0
1635112435.0625,0,0,95.97708707447636,0.0,2.0
1635112435.53125,0,0,0.0,0.0,2.0
1635112436.0,0,0,82.79590293953065,0.0,2.0
1635112436.46875,0,0,0.0,0.0,2.0
1635112436.9375,0,0,92.44052725301498,0.0,2.0
1635112437.40625,0,0,0.0,0.0,2.0
1635112437.875,0,0,0.0,0.0,2.0
1635112438.34375,0,0,97.44038780697807,0.0,2.0
1635112438.8125,0,0,0.0,0.0,2.0
1635112439.28125,0,0,0.0,0.0,2.0
1635112439.75,0,0,88.75413002388802,0.0,2.0
1635112440.21875,0,0,122.87746377114547,0.0,2.0
1635112440.6875,0,0,0.0,0.0,2.0
1635112441.15625,0,0,94.09198304388394,0.0,2.0
1635112441.625,0,0,0.0,0.0,2.0
1635112442.09375,0,0,82.06750007795634,0.0,2.0
1635112442.5625,0,0,0.0,0.0,2.0
1635112443.03125,0,0,106.22553388669108,0.0,2.0
1635112443.5,0,0,0.0,0.0,2.0
1635112443.96875,0,0,118.1283593557947,0.0,2.0
1635112444.4375,0,0,0.0,0.0,2.0
1635112444.90625,0,0,99.29613413714337,0.0,2.0
1635112445.375,0,0,32.36836283073231,0.0,2.0
1635112445.84375,0,0,0.0,0.0,2.0
1635112446.3125,0,0,7.818307666071187,0.0,2.0
1635112446.78125,0,0,0.0,0.0,2.0
1635112447.25,0,0,14.41448732760832,0.0,2.0
1635112447.71875,0,0,0.0,0.0,2.0
1635112448.1875,0,0,-9.507805310479453,0.0,2.0
1635112448.65625,0,0,8.070939560198704,0.0,2.0
1635112449.125,0,0,10.795296139043998,0.0,2.0
1635112449.59375,0,0,0.0,0.0,2.0
1635112450.0625,0,0,30.549639414510832,0.0,2.0
1635112450.53125,0,0,0.0,0.0,2.0
1635112451.0,0,0,0.29158045354180456,0.0,2.0
1635112451.46875,0,0,-2.0030886067782427,0.0,2.0
1635112451.9375,0,0,7.2922253129726124,0.0,2.0
1635112452.40625,0,0,0.0,0.0,2.0
1635112452.875,0,0,9.713483916900874,0.0,2.0
1635112453.34375,0,0,12.502398483613222,0.0,2.0
1635112453.8125,0,0,14.869287719043102,0.0,2.0
1635112454.28125,0,0,0.0,0.0,2.0
1635112454.75,0,0,14.004140285390257,0.0,2.0
1635112455.21875,0,0,0.0,0.0,2.0
1635112455.6875,0,0,0.0,0.0,2.0
1635112456.15625,0,0,0.0,0.0,2.0
1635112456.625,0,0,22.472598193473942,0.0,2.0
1635112457.09375,0,0,18.324917371592903,0.0,2.0
1635112457.5625,0,0,0.0,0.0,2.0
1635112458.03125,0,0,14.122151439919651,0.0,2.0
1635112458.5,0,0,0.0,0.0,2.0
1635112458.96875,0,0,18.608776348514624,0.0,2.0
1635112459.4375,0,0,0.0,0.0,2.0
1635112459.90625,0,0,19.346911876150443,0.0,2.0
1635112460.375,0,0,0.0,0.0,2.0
1635112460.84375,0,0,19.188329026952314,0.0,2.0
1635112461.3125,0,0,0.0,0.0,2.0
1635112461.78125,0,0,-4.8103376840728735,0.0,2.0
1635112462.25,0,0,14.044888292344222,0.0,2.0
1635112462.71875,0,0,13.27488353190325,0.0,2.0
1635112463.1875,0,0,20.235942128572585,0.0,2.0
1635112463.65625,0,0,21.327365304487696,0.0,2.0
1635112464.125,0,0,29.175376490375925,0.0,2.0
1635112464.59375,0,0,0.0,0.0,2.0
1635112465.0625,0,0,11.47011799494176,0.0,2.0
1635112465.53125,0,0,5.799677619147671,0.0,2.0
1635112466.0,0,0,0.0,0.0,2.0
1635112466.46875,0,0,18.82256192293261,0.0,2.0
1635112466.9375,0,0,21.461825268044,0.0,2.0
1635112467.40625,0,0,7.500109049514016,0.0,2.0
1635112467.875,0,0,19.816403702424417,0.0,2.0
1635112468.34375,0,0,7.941967842883914,0.0,2.0
1635112468.8125,0,0,31.523636649935675,0.0,2.0
1635112469.28125,0,0,0.0,0.0,2.0
1635112469.75,0,0,18.64301381802272,0.0,2.0
1635112470.21875,0,0,0.0,0.0,2.0
1635112470.6875,0,0,22.923230533320364,0.0,2.0
1635112471.15625,0,0,18.829354520825785,0.0,2.0
1635112471.625,0,0,10.539756024069515,0.0,2.0
1635112472.09375,0,0,35.16834228361811,0.0,2.0
1635112472.5625,0,0,0.0,0.0,2.0
1635112473.03125,0,0,17.668795086345746,0.0,2.0
1635112473.5,0,0,6.392978203625214,0.0,2.0
1635112473.96875,0,0,17.943662556899536,0.0,2.0
1635112474.4375,0,0,-1.8382551937988125,0.0,2.0
1635112474.90625,0,0,6.697552420787644,0.0,2.0
1635112475.375,0,0,19.379579091366445,0.0,2.0
1635112475.84375,0,0,0.0,0.0,2.0
1635112476.3125,0,0,21.016301432036478,0.0,2.0
1635112476.78125,0,0,0.0,0.0,2.0
1635112477.25,0,0,14.482530857932083,0.0,2.0
1635112477.71875,0,0,16.33647946986539,0.0,2.0
1635112478.1875,0,0,0.0,0.0,2.0
1635112478.65625,0,0,40.92063697281682,0.0,2.0
1635112479.125,0,0,0.0,0.0,2.0
1635112479.59375,0,0,38.97238495270131,0.0,2.0
1635112480.0625,0,0,15.245544556869893,0.0,2.0
1635112480.53125,0,0,3.388693961032001,0.0,2.0
1635112481.0,0,0,0.0,0.0,2.0
1635112481.46875,0,0,0.0,0.0,2.0
1635112481.9375,0,0,25.60864723577341,0.0,2.0
1635112482.40625,0,0,43.2471652043807,0.0,2.0
1635112482.875,0,0,0.0,0.0,2.0
1635112483.34375,0,0,49.04590799315577,0.0,2.0
1635112483.8125,0,0,-23.78299498106411,0.0,2.0
1635112484.28125,0,0,14.693278125348884,0.0,2.0
1635112484.75,0,0,10.428415924536049,0.0,2.0
1635112485.21875,0,0,18.884691303288086,0.0,2.0
1635112485.6875,0,0,0.0,0.0,2.0
1635112486.15625,0,0,19.99690168003063,0.0,2.0
1635112486.625,0,0,0.0,0.0,2.0
1635112487.09375,0,0,0.0,0.0,2.0
1635112487.5625,0,0,49.16462702880071,0.0,2.0
1635112488.03125,0,0,0.0,0.0,2.0
1635112488.5,0,0,40.545380930551126,0.0,2.0
1635112488.96875,0,0,25.018927886635208,0.0,2.0
1635112489.4375,0,0,0.0,0.0,2.0
1635112489.90625,0,0,23.292455407905706,0.0,2.0
1635112490.375,0,0,0.0,0.0,2.0
1635112490.84375,0,0,21.200948803334203,0.0,2.0
1635112491.3125,0,0,0.0,0.0,2.0
1635112491.78125,0,0,22.203971587950342,0.0,2.0
1635112492.25,0,0,24.249565337494747,0.0,2.0
1635112492.71875,0,0,0.0,0.0,2.0
1635112493.1875,0,0,20.471310954142375,0.0,2.0
1635112493.65625,0,0,0.0,0.0,2.0
1635112494.125,0,0,2.523290146055522,0.0,2.0
1635112494.59375,0,0,63.56120438817317,0.0,2.0
1635112495.0625,0,0,32.266481465510154,0.0,2.0
1635112495.53125,0,0,-15.824566062924639,0.0,2.0
1635112496.0,0,0,52.335837482796315,0.0,2.0
1635112496.46875,0,0,-3.109353164308436,0.0,2.0
1635112496.9375,0,0,-5.668491767251143,0.0,2.0
1635112497.40625,0,0,77.03552310190898,0.0,2.0
1635112497.875,0,0,0.0,0.0,2.0
1635112498.34375,0,0,138.2205920474363,0.0,2.0
1635112498.8125,0,0,13.332876941083654,0.0,2.0
1635112499.28125,0,0,-1.7680039006192392,0.0,2.0
1635112499.75,0,0,94.82469385699882,0.0,2.0
1635112500.21875,0,0,49.974660031995846,0.0,2.0
1635112500.6875,0,0,69.75276338229338,0.0,2.0
1635112501.15625,0,0,16.363341714432114,0.0,2.0
1635112501.625,0,0,103.96235157685902,0.0,2.0
1635112502.09375,0,0,33.20458599028903,0.0,2.0
1635112502.5625,0,0,81.70187753579012,0.0,2.0
1635112503.03125,0,0,24.472953277506278,0.0,2.0
1635112503.5,0,0,83.88469301070856,0.0,2.0
1635112503.96875,0,0,32.57009168457607,0.0,2.0
1635112504.4375,0,0,24.29836840304543,0.0,2.0
1635112504.90625,0,0,107.06958092132724,0.0,2.0
1635112505.375,0,0,-48.740248403675004,0.0,2.0
1635112505.84375,0,0,63.738968450995934,0.0,2.0
1635112506.3125,0,0,36.82561323396714,0.0,2.0
1635112506.78125,0,0,58.93901559742774,0.0,2.0
1635112507.25,0,0,0.0,0.0,2.0
1635112507.71875,0,0,76.2566083243283,0.0,2.0
1635112508.1875,0,0,57.61150263195685,0.0,2.0
1635112508.65625,0,0,0.0,0.0,2.0
1635112509.125,0,0,62.76020823123395,0.0,2.0
1635112509.59375,0,0,44.09403052168352,0.0,2.0
1635112510.0625,0,0,87.12862287074293,0.0,2.0
1635112510.53125,0,0,0.0,0.0,2.0
1635112511.0,0,0,0.0,0.0,2.0
1635112511.46875,0,0,133.42016332892115,0.0,2.0
1635112511.9375,0,0,0.0,0.0,2.0
1635112512.40625,0,0,0.0,0.0,2.0
1635112512.875,0,0,44.01501422340863,0.0,2.0
1635112513.34375,0,0,0.0,0.0,2.0
1635112513.8125,0,0,88.73939128931366,0.0,2.0
1635112514.28125,0,0,41.903958837036235,0.0,2.0
1635112514.75,0,0,0.0,0.0,2.0
1635112515.21875,0,0,61.822023888558725,0.0,2.0
1635112515.6875,0,0,27.85605254268352,0.0,2.0
1635112516.15625,0,0,60.695682899601366,0.0,2.0
1635112516.625,0,0,0.0,0.0,2.0
1635112517.09375,0,0,105.97090726024597,0.0,2.0
1635112517.5625,0,0,70.15590139785051,0.0,2.0
1635112518.03125,0,0,67.6108275332746,0.0,2.0
1635112518.5,0,0,25.717272332925702,0.0,2.0
1635112518.96875,0,0,1.0738871069321798,0.0,2.0
1635112519.4375,0,0,12.610714219698234,0.0,2.0
1635112519.90625,0,0,0.0,0.0,2.0
1635112520.375,0,0,0.0,0.0,2.0
1635112520.84375,0,0,10.39116653837243,0.0,2.0
1635112521.3125,0,0,0.0,0.0,2.0
1635112521.78125,0,0,40.3034096425649,0.0,2.0
1635112522.25,0,0,13.291050288630625,0.0,2.0
1635112522.71875,0,0,0.0,0.0,2.0
1635112523.1875,0,0,24.657804074052965,0.0,2.0
1635112523.65625,0,0,3.919142383561891,0.0,2.0
1635112524.125,0,0,31.26630044708124,0.0,2.0
1635112524.59375,0,0,0.0,0.0,2.0
1635112525.0625,0,0,0.0,0.0,2.0
1635112525.53125,0,0,12.331436839381247,0.0,2.0
1635112526.0,0,0,39.2729089742709,0.0,2.0
1635112526.46875,0,0,0.0,0.0,2.0
1635112526.9375,0,0,25.008523593414477,0.0,2.0
1635112527.40625,0,0,-12.945656930041494,0.0,2.0
1635112527.875,0,0,0.0,0.0,2.0
1635112528.34375,0,0,0.0,0.0,2.0
1635112528.8125,0,0,-2.056417413809579,0.0,2.0
1635112529.28125,0,0,0.0,0.0,2.0
1635112529.75,0,0,60.08986448424529,0.0,2.0
1635112530.21875,0,0,0.0,0.0,2.0
1635112530.6875,0,0,14.416794829701006,0.0,2.0
1635112531.15625,0,0,0.0,0.0,2.0
1635112531.625,0,0,39.06291417739225,0.0,2.0
1635112532.09375,0,0,0.0,0.0,2.0
1635112532.5625,0,0,32.45354527383563,0.0,2.0
1635112533.03125,0,0,0.0,0.0,2.0
1635112533.5,0,0,0.0,0.0,2.0
1635112533.96875,0,0,42.56035247601797,0.0,2.0
1635112534.4375,0,0,0.0,0.0,2.0
1635112534.90625,0,0,0.0,0.0,2.0
1635112535.375,0,0,0.0,0.0,2.0
1635112535.84375,0,0,0.0,0.0,2.0
1635112536.3125,0,0,0.0,0.0,2.0
1635112536.78125,0,0,0.0,0.0,2.0
1635112537.25,0,0,32.143178985328504,0.0,2.0
1635112537.71875,0,0,50.64061397532034,0.0,2.0
1635112538.1875,0,0,1.1510686725928814,0.0,2.0
1635112538.65625,0,0,18.553615917956833,0.0,2.0
1635112539.125,0,0,0.0,0.0,2.0
1635112539.59375,0,0,-15.1558344730986,0.0,2.0
1635112540.0625,0,0,186.81105467230827,0.0,2.0
1635112540.53125,0,0,-19.581823037852132,0.0,2.0
1635112541.0,0,0,13.133238805422385,0.0,2.0
1635112541.46875,0,0,19.186487001223103,0.0,2.0
1635112541.9375,0,0,23.908322175228655,0.0,2.0
1635112542.40625,0,0,-3.1989232746213814,0.0,2.0
1635112542.875,0,0,0.0,0.0,2.0
1635112543.34375,0,0,66.70057553476516,0.0,2.0
1635112543.8125,0,0,0.0,0.0,2.0
1635112544.28125,0,0,44.998276730149314,0.0,2.0
1635112544.75,0,0,48.40724941097554,0.0,2.0
1635112545.21875,0,0,40.53398128999214,0.0,2.0
1635112545.6875,0,0,-2.4382465157636473,0.0,2.0
1635112546.15625,0,0,-11.928524726280386,0.0,2.0
1635112546.625,0,0,10.767138589530147,0.0,2.0
1635112547.09375,0,0,11.109508319282554,0.0,2.0
1635112547.5625,0,0,0.0,0.0,2.0
1635112548.03125,0,0,11.638590330272422,0.0,3.0
1635112548.5,0,0,19.423264798550917,0.0,3.0
1635112548.96875,0,0,0.0,0.0,3.0
1635112549.4375,0,0,237.20440110684405,0.0,3.0
1635112549.90625,0,0,51.92560264123927,0.0,3.0
1635112550.375,0,0,-27.328217900950946,0.0,3.0
1635112550.84375,0,0,87.14816229659598,0.0,3.0
1635112551.3125,0,0,38.39819844306062,0.0,3.0
1635112551.78125,0,0,0.0,0.0,3.0
1635112552.25,0,0,71.57009172663759,0.0,3.0
1635112552.71875,0,0,61.12936982657958,0.0,3.0
1635112553.1875,0,0,0.0,0.0,3.0
1635112553.65625,0,0,57.11193931972036,0.0,3.0
1635112554.125,0,0,300.27741200713353,0.0,3.0
1635112554.59375,0,0,0.0,0.0,3.0
1635112555.0625,0,0,74.20832621800287,0.0,3.0
1635112555.53125,0,0,0.0,0.0,3.0
1635112556.0,0,0,18.543679544685922,0.0,3.0
1635112556.46875,0,0,20.594796804013146,0.0,3.0
1635112556.9375,0,0,0.0,0.0,3.0
1635112557.40625,0,0,136.29591837177736,0.0,3.0
1635112557.875,0,0,0.0,0.0,3.0
1635112558.34375,0,0,47.64634480044014,0.0,3.0
1635112558.8125,0,0,75.34364799161429,0.0,3.0
1635112559.28125,0,0,9.89844394507429,0.0,3.0
1635112559.75,0,0,22.933030795558526,0.0,3.0
1635112560.21875,0,0,0.0,0.0,3.0
1635112560.6875,0,0,107.23785375162953,0.0,3.0
1635112561.15625,0,0,34.96824650218356,0.0,3.0
1635112561.625,0,0,0.0,0.0,3.0
1635112562.09375,0,0,49.13356630858209,0.0,3.0
1635112562.5625,0,0,0.0,0.0,3.0
1635112563.03125,0,0,65.38778230707256,0.0,3.0
1635112563.5,0,0,0.0,0.0,3.0
1635112563.96875,0,0,41.903328133383106,0.0,3.0
1635112564.4375,0,0,0.0,0.0,3.0
1635112564.90625,0,0,31.496361266386383,0.0,3.0
1635112565.375,0,0,13.001669160544413,0.0,3.0
1635112565.84375,0,0,0.0,0.0,3.0
1635112566.3125,0,0,36.23846687305876,0.0,3.0
1635112566.78125,0,0,13.809702037285026,0.0,3.0
1635112567.25,0,0,0.0,0.0,3.0
1635112567.71875,0,0,8.806478331452501,0.0,3.0
1635112568.1875,0,0,1.7094843769217642,0.0,3.0
1635112568.65625,0,0,-1.9312990483568837,0.0,3.0
1635112569.125,0,0,74.4170405104261,0.0,3.0
1635112569.59375,0,0,0.0,0.0,3.0
1635112570.0625,0,0,33.65216740886732,0.0,3.0
1635112570.53125,0,0,0.0,0.0,3.0
1635112571.0,0,0,0.0,0.0,3.0
1635112571.46875,0,0,37.878826460066016,0.0,3.0
1635112571.9375,0,0,1.2437313271821286,0.0,3.0
1635112572.40625,0,0,8.454157212207601,0.0,3.0
1635112572.875,0,0,1.7082231374533645,0.0,3.0
1635112573.34375,0,0,60.706221131458435,0.0,3.0
1635112573.8125,0,0,0.0,0.0,3.0
1635112574.28125,0,0,0.8000651450640551,0.0,3.0
1635112574.75,0,0,40.25739411154488,0.0,3.0
1635112575.21875,0,0,0.0,0.0,3.0
1635112575.6875,0,0,-6.019693005297532,0.0,3.0
1635112576.15625,0,0,26.034264188883267,0.0,3.0
1635112576.625,0,0,0.0,0.0,3.0
1635112577.09375,0,0,42.918173366760435,0.0,3.0
1635112577.5625,0,0,-48.19707255573003,0.0,3.0
1635112578.03125,0,0,35.28847944217562,0.0,3.0
1635112578.5,0,0,0.0,0.0,3.0
1635112578.96875,0,0,48.08137108005825,0.0,3.0
1635112579.4375,0,0,0.0,0.0,3.0
1635112579.90625,0,0,16.258326113723548,0.0,3.0
1635112580.375,0,0,0.0,0.0,3.0
1635112580.84375,0,0,18.554929694318304,0.0,3.0
1635112581.3125,0,0,0.0,0.0,3.0
1635112581.78125,0,0,0.0,0.0,3.0
1635112582.25,0,0,17.45797468736768,0.0,3.0
1635112582.71875,0,0,0.0,0.0,3.0
1635112583.1875,0,0,25.67988837355296,0.0,3.0
1635112583.65625,0,0,0.0,0.0,3.0
1635112584.125,0,0,0.0,0.0,3.0
1635112584.59375,0,0,22.473341587114604,0.0,3.0
1635112585.0625,0,0,36.59788463436589,0.0,3.0
1635112585.53125,0,0,0.0,0.0,3.0
1635112586.0,0,0,26.27010850119073,0.0,3.0
1635112586.46875,0,0,0.0,0.0,3.0
1635112586.9375,0,0,23.576179677617546,0.0,3.0
1635112587.40625,0,0,-12.592434535926435,0.0,3.0
1635112587.875,0,0,-6.209997325604128,0.0,3.0
1635112588.34375,0,0,35.887693143545384,0.0,3.0
1635112588.8125,0,0,0.0,0.0,3.0
1635112589.28125,0,0,59.4517807057806,0.0,3.0
1635112589.75,0,0,0.0,0.0,3.0
1635112590.21875,0,0,7.1204698061639675,0.0,3.0
1635112590.6875,0,0,24.331810343423516,0.0,3.0
1635112591.15625,0,0,0.0,0.0,3.0
1635112591.625,0,0,28.336854074345215,0.0,3.0
1635112592.09375,0,0,8.41881862042551,0.0,3.0
1635112592.5625,0,0,10.179878412518663,0.0,3.0
1635112593.03125,0,0,10.084266728057672,0.0,3.0
1635112593.5,0,0,0.0,0.0,3.0
1635112593.96875,0,0,9.377383526617036,0.0,3.0
1635112594.4375,0,0,0.0,0.0,3.0
1635112594.90625,0,0,9.884528331009149,0.0,3.0
1635112595.375,0,0,9.21221009393268,0.0,3.0
1635112595.84375,0,0,0.0,0.0,3.0
1635112596.3125,0,0,5.4499253967931915,0.0,3.0
1635112596.78125,0,0,8.8041600566034,0.0,3.0
1635112597.25,0,0,18.214981022629573,0.0,3.0
1635112597.71875,0,0,0.0,0.0,3.0
1635112598.1875,0,0,15.545292961432963,0.0,3.0
1635112598.65625,0,0,0.0,0.0,3.0
1635112599.125,0,0,15.042987117430867,0.0,3.0
1635112599.59375,0,0,-11.663143179496117,0.0,3.0
1635112600.0625,0,0,10.497522098631247,0.0,3.0
1635112600.53125,0,0,20.917811852258836,0.0,3.0
1635112601.0,0,0,0.0,0.0,3.0
1635112601.46875,0,0,10.321006832293056,0.0,3.0
1635112601.9375,0,0,-15.199556314420525,0.0,3.0
1635112602.40625,0,0,15.367208945521396,0.0,3.0
1635112602.875,0,0,12.830577974457553,0.0,3.0
1635112603.34375,0,0,0.0,0.0,3.0
1635112603.8125,0,0,18.95799482444364,0.0,3.0
1635112604.28125,0,0,0.0,0.0,3.0
1635112604.75,0,0,12.628784588322144,0.0,3.0
1635112605.21875,0,0,0.0,0.0,3.0
1635112605.6875,0,0,14.587665796532523,0.0,3.0
1635112606.15625,0,0,21.1814481041258,0.0,3.0
1635112606.625,0,0,0.0,0.0,3.0
1635112607.09375,0,0,0.0,0.0,3.0
1635112607.5625,0,0,16.484852525995528,0.0,3.0
1635112608.03125,0,0,20.30527056029631,0.0,3.0
1635112608.5,0,0,35.0367616592442,0.0,3.0
1635112608.96875,0,0,0.0,0.0,3.0
1635112609.4375,0,0,24.33783080168028,0.0,3.0
1635112609.90625,0,0,0.0,0.0,3.0
1635112610.375,0,0,1.4148140291990559,0.0,3.0
1635112610.84375,0,0,0.0,0.0,3.0
1635112611.3125,0,0,32.68127819944537,0.0,3.0
1635112611.78125,0,0,0.0,0.0,3.0
1635112612.25,0,0,9.974561063168771,0.0,3.0
1635112612.71875,0,0,19.863149756508776,0.0,3.0
1635112613.1875,0,0,0.0,0.0,3.0
1635112613.65625,0,0,7.875046503967903,0.0,3.0
1635112614.125,0,0,0.0,0.0,3.0
1635112614.59375,0,0,17.46825504501256,0.0,3.0
1635112615.0625,0,0,13.286673682313024,0.0,3.0
1635112615.53125,0,0,-5.260388537536049,0.0,3.0
1635112616.0,0,0,19.00802043301262,0.0,3.0
1635112616.46875,0,0,0.0,0.0,3.0
1635112616.9375,0,0,7.80954399460778,0.0,3.0
1635112617.40625,0,0,0.0,0.0,3.0
1635112617.875,0,0,1.0979973705236057,0.0,3.0
1635112618.34375,0,0,0.0,0.0,3.0
1635112618.8125,0,0,36.579118846216765,0.0,3.0
1635112619.28125,0,0,0.0,0.0,3.0
1635112619.75,0,0,27.11878271699139,0.0,3.0
1635112620.21875,0,0,19.203520213091362,0.0,3.0
1635112620.6875,0,0,0.0,0.0,3.0
1635112621.15625,0,0,8.104936630764348,0.0,3.0
1635112621.625,0,0,0.0,0.0,3.0
1635112622.09375,0,0,16.11648437314477,0.0,3.0
1635112622.5625,0,0,-2.93347972293882,0.0,3.0
1635112623.03125,0,0,0.34401056105661054,0.0,3.0
1635112623.5,0,0,16.81622233124015,0.0,3.0
1635112623.96875,0,0,0.0,0.0,3.0
1635112624.4375,0,0,8.742261100974996,0.0,3.0
1635112624.90625,0,0,0.0,0.0,3.0
1635112625.375,0,0,11.16105637964159,0.0,3.0
1635112625.84375,0,0,0.0,0.0,3.0
1635112626.3125,0,0,13.677602960588075,0.0,3.0
1635112626.78125,0,0,0.0,0.0,3.0
1635112627.25,0,0,4.406323202008365,0.0,3.0
1635112627.71875,0,0,15.017864860681938,0.0,3.0
1635112628.1875,0,0,0.0,0.0,3.0
1635112628.65625,0,0,5.748426119128965,0.0,3.0
1635112629.125,0,0,14.041535691768798,0.0,3.0
1635112629.59375,0,0,0.0,0.0,3.0
1635112630.0625,0,0,12.84863276026889,0.0,3.0
1635112630.53125,0,0,0.0,0.0,3.0
1635112631.0,0,0,14.02197242361213,0.0,3.0
1635112631.46875,0,0,0.0,0.0,3.0
1635112631.9375,0,0,19.509140244637976,0.0,3.0
1635112632.40625,0,0,13.754827383642299,0.0,3.0
1635112632.875,0,0,0.0,0.0,3.0
1635112633.34375,0,0,8.452625274567652,0.0,3.0
1635112633.8125,0,0,0.0,0.0,3.0
1635112634.28125,0,0,0.0,0.0,3.0
1635112634.75,0,0,0.0,0.0,3.0
1635112635.21875,0,0,9.373701922334764,0.0,3.0
1635112635.6875,0,0,14.427732183757175,0.0,3.0
1635112636.15625,0,0,0.0,0.0,3.0
1635112636.625,0,0,5.950312811936689,0.0,3.0
1635112637.09375,0,0,13.866051678154257,0.0,3.0
1635112637.5625,0,0,0.0,0.0,3.0
1635112638.03125,0,0,13.838416097356612,0.0,3.0
1635112638.5,0,0,0.0,0.0,3.0
1635112638.96875,0,0,10.969657323565853,0.0,3.0
1635112639.4375,0,0,0.0,0.0,3.0
1635112639.90625,0,0,12.162264833018881,0.0,3.0
1635112640.375,0,0,0.0,0.0,3.0
1635112640.84375,0,0,6.243123354356666,0.0,3.0
1635112641.3125,0,0,11.300713283350573,0.0,3.0
1635112641.78125,0,0,0.0,0.0,3.0
1635112642.25,0,0,12.089485326099204,0.0,3.0
1635112642.71875,0,0,0.0,0.0,3.0
1635112643.1875,0,0,0.6974925539595864,0.0,3.0
1635112643.65625,0,0,0.0,0.0,3.0
1635112644.125,0,0,11.358810405950676,0.0,3.0
1635112644.59375,0,0,0.0,0.0,3.0
1635112645.0625,0,0,11.506948312836911,0.0,3.0
1635112645.53125,0,0,14.213113729882641,0.0,3.0
1635112646.0,0,0,0.0,0.0,3.0
1635112646.46875,0,0,13.189395310483917,0.0,3.0
1635112646.9375,0,0,0.0,0.0,3.0
1635112647.40625,0,0,13.799361495745632,0.0,3.0
1635112647.875,0,0,0.0,0.0,3.0
1635112648.34375,0,0,9.391452481369013,0.0,3.0
1635112648.8125,0,0,18.225408158830422,0.0,3.0
1635112649.28125,0,0,0.0,0.0,3.0
1635112649.75,0,0,-1.2196852674094383,0.0,3.0
1635112650.21875,0,0,4.855482102692713,0.0,3.0
1635112650.6875,0,0,24.87038482522633,0.0,3.0
1635112651.15625,0,0,0.0,0.0,3.0
1635112651.625,0,0,23.835797954538272,0.0,3.0
1635112652.09375,0,0,0.0,0.0,3.0
1635112652.5625,0,0,16.404264317882404,0.0,3.0
1635112653.03125,0,0,0.0,0.0,3.0
1635112653.5,0,0,4.038797475211291,0.0,3.0
1635112653.96875,0,0,20.87212831754259,0.0,3.0
1635112654.4375,0,0,0.0,0.0,3.0
1635112654.90625,0,0,15.444075970300048,0.0,3.0
1635112655.375,0,0,0.0,0.0,3.0
1635112655.84375,0,0,13.232789785304911,0.0,3.0
1635112656.3125,0,0,0.0,0.0,3.0
1635112656.78125,0,0,0.0,0.0,3.0
1635112657.25,0,0,11.393797981157476,0.0,3.0
1635112657.71875,0,0,0.0,0.0,3.0
1635112658.1875,0,0,9.3486022501895,0.0,3.0
1635112658.65625,0,0,0.0,0.0,3.0
1635112659.125,0,0,11.302911323468097,0.0,3.0
1635112659.59375,0,0,15.81266269126659,0.0,3.0
1635112660.0625,0,0,0.0,0.0,3.0
1635112660.53125,0,0,10.68034421872594,0.0,3.0
1635112661.0,0,0,0.0,0.0,3.0
1635112661.46875,0,0,13.609620308096703,0.0,3.0
1635112661.9375,0,0,0.0,0.0,3.0
1635112662.40625,0,0,10.760748937198693,0.0,3.0
1635112662.875,0,0,0.0,0.0,3.0
1635112663.34375,0,0,0.0,0.0,3.0
1635112663.8125,0,0,5.782067731145328,0.0,3.0
1635112664.28125,0,0,0.0,0.0,3.0
1635112664.75,0,0,22.47081939798278,0.0,3.0
1635112665.21875,0,0,-5.656543331169482,0.0,3.0
1635112665.6875,0,0,-3.367447713363128,0.0,3.0
1635112666.15625,0,0,21.88612309545399,0.0,3.0
1635112666.625,0,0,3.3754656100832645,0.0,3.0
1635112667.09375,0,0,-6.388525939106746,0.0,3.0
1635112667.5625,0,0,11.437978693558716,0.0,3.0
1635112668.03125,0,0,0.0,0.0,3.0
1635112668.5,0,0,15.372174157284377,0.0,3.0
1635112668.96875,0,0,6.117483232986026,0.0,3.0
1635112669.4375,0,0,7.126179233276095,0.0,3.0
1635112669.90625,0,0,13.136897920378388,0.0,3.0
1635112670.375,0,0,0.0,0.0,3.0
1635112670.84375,0,0,18.072899297992375,0.0,3.0
1635112671.3125,0,0,0.0,0.0,3.0
1635112671.78125,0,0,9.736930470494814,0.0,3.0
1635112672.25,0,0,0.0,0.0,3.0
1635112672.71875,0,0,17.837404235794587,0.0,3.0
1635112673.1875,0,0,6.929091815106725,0.0,3.0
1635112673.65625,0,0,0.0,0.0,3.0
1635112674.125,0,0,17.409935987560342,0.0,3.0
1635112674.59375,0,0,0.0,0.0,3.0
1635112675.0625,0,0,13.364328063499205,0.0,3.0
1635112675.53125,0,0,0.0,0.0,3.0
1635112676.0,0,0,9.421978331396648,0.0,3.0
1635112676.46875,0,0,12.728148770779526,0.0,3.0
1635112676.9375,0,0,0.0,0.0,3.0
1635112677.40625,0,0,10.498570601488066,0.0,3.0
1635112677.875,0,0,0.0,0.0,3.0
1635112678.34375,0,0,0.0,0.0,3.0
1635112678.8125,0,0,0.0,0.0,3.0
1635112679.28125,0,0,21.51779302014081,0.0,3.0
1635112679.75,0,0,4.738619374353029,0.0,3.0
1635112680.21875,0,0,-0.8057758889032569,0.0,3.0
1635112680.6875,0,0,13.88028032699858,0.0,3.0
1635112681.15625,0,0,0.0,0.0,3.0
1635112681.625,0,0,12.370690735550479,0.0,3.0
1635112682.09375,0,0,0.0,0.0,3.0
1635112682.5625,0,0,8.888354814558364,0.0,3.0
1635112683.03125,0,0,8.808866879366242,0.0,3.0
1635112683.5,0,0,0.0,0.0,3.0
1635112683.96875,0,0,9.777311471130268,0.0,3.0
1635112684.4375,0,0,0.0,0.0,3.0
1635112684.90625,0,0,11.099167600512176,0.0,3.0
1635112685.375,0,0,0.0,0.0,3.0
1635112685.84375,0,0,10.7303812761423,0.0,3.0
1635112686.3125,0,0,10.618296115650205,0.0,3.0
1635112686.78125,0,0,-2.9779563405753153,0.0,3.0
1635112687.25,0,0,12.805049800763436,0.0,3.0
1635112687.71875,0,0,0.0,0.0,3.0
1635112688.1875,0,0,13.98709647138634,0.0,3.0
1635112688.65625,0,0,0.0,0.0,3.0
1635112689.125,0,0,12.06483933141557,0.0,3.0
1635112689.59375,0,0,7.654650241621914,0.0,3.0
1635112690.0625,0,0,13.59835979266162,0.0,3.0
1635112690.53125,0,0,10.591069858245449,0.0,3.0
1635112691.0,0,0,0.0,0.0,3.0
1635112691.46875,0,0,11.619944223614679,0.0,3.0
1635112691.9375,0,0,0.0,0.0,3.0
1635112692.40625,0,0,9.032766415149952,0.0,3.0
1635112692.875,0,0,0.0,0.0,3.0
1635112693.34375,0,0,10.665379559547938,0.0,3.0
1635112693.8125,0,0,14.470248838678625,0.0,3.0
1635112694.28125,0,0,0.0,0.0,3.0
1635112694.75,0,0,13.229841362793268,0.0,3.0
1635112695.21875,0,0,0.0,0.0,3.0
1635112695.6875,0,0,9.616360301103217,0.0,3.0
1635112696.15625,0,0,0.0,0.0,3.0
1635112696.625,0,0,13.05287141424472,0.0,3.0
1635112697.09375,0,0,14.735518994771077,0.0,3.0
1635112697.5625,0,0,0.0,0.0,3.0
1635112698.03125,0,0,10.515392472288221,0.0,3.0
1635112698.5,0,0,0.0,0.0,3.0
1635112698.96875,0,0,10.599094920179295,0.0,3.0
1635112699.4375,0,0,0.0,0.0,3.0
1635112699.90625,0,0,11.690085725242298,0.0,3.0
1635112700.375,0,0,0.0,0.0,3.0
1635112700.84375,0,0,8.506102191555467,0.0,3.0
1635112701.3125,0,0,0.0,0.0,3.0
1635112701.78125,0,0,0.0,0.0,3.0
1635112702.25,0,0,9.114594060644194,0.0,3.0
1635112702.71875,0,0,0.0,0.0,3.0
1635112703.1875,0,0,9.077385975499482,0.0,3.0
1635112703.65625,0,0,0.0,0.0,3.0
1635112704.125,0,0,13.024475363468751,0.0,3.0
1635112704.59375,0,0,16.95330572179136,0.0,3.0
1635112705.0625,0,0,0.0,0.0,3.0
1635112705.53125,0,0,7.5942100540684825,0.0,3.0
1635112706.0,0,0,-2.1103328693062595,0.0,3.0
1635112706.46875,0,0,9.37466784248252,0.0,3.0
1635112706.9375,0,0,0.0,0.0,3.0
1635112707.40625,0,0,14.730544428929232,0.0,3.0
1635112707.875,0,0,0.0,0.0,3.0
1635112708.34375,0,0,7.6869808273313955,0.0,3.0
1635112708.8125,0,0,0.0,0.0,3.0
1635112709.28125,0,0,11.896875414886786,0.0,3.0
1635112709.75,0,0,7.044570967157951,0.0,3.0
1635112710.21875,0,0,4.836340688399516,0.0,3.0
1635112710.6875,0,0,12.349864768497504,0.0,3.0
1635112711.15625,0,0,0.0,0.0,3.0
1635112711.625,0,0,12.487814478206158,0.0,3.0
1635112712.09375,0,0,5.0073912404858545,0.0,3.0
1635112712.5625,0,0,2.895190890823956,0.0,3.0
1635112713.03125,0,0,9.20015399820971,0.0,3.0
1635112713.5,0,0,8.565409870136072,0.0,3.0
1635112713.96875,0,0,9.978670810653293,0.0,3.0
1635112714.4375,0,0,0.0,0.0,3.0
1635112714.90625,0,0,9.840432905978966,0.0,3.0
1635112715.375,0,0,0.0,0.0,3.0
1635112715.84375,0,0,12.838736762438144,0.0,3.0
1635112716.3125,0,0,12.168320692147198,0.0,3.0
1635112716.78125,0,0,0.0,0.0,3.0
1635112717.25,0,0,12.454791990941809,0.0,3.0
1635112717.71875,0,0,0.0,0.0,3.0
1635112718.1875,0,0,7.555114157488448,0.0,3.0
1635112718.65625,0,0,0.0,0.0,3.0
1635112719.125,0,0,8.336944764705791,0.0,3.0
1635112719.59375,0,0,12.666535547288193,0.0,3.0
1635112720.0625,0,0,0.0,0.0,3.0
1635112720.53125,0,0,18.355563795202062,0.0,3.0
1635112721.0,0,0,0.0,0.0,3.0
1635112721.46875,0,0,12.675996793055013,0.0,3.0
