timestamp,mean_pulse_rate,pulse_rate_std,mean_pulse_amplitude,pulse_amplitude_std,block
1623777955.59375,0,0,28.498098108604257,0.0,1.0
1623777956.0625,0,0,0.0,0.0,1.0
1623777956.53125,0,0,134.44176785338382,0.0,1.0
1623777957.0,0,0,197.22808003678892,0.0,1.0
1623777957.46875,0,0,152.2677221059801,0.0,1.0
1623777957.9375,0,0,0.0,0.0,1.0
1623777958.40625,0,0,-14.68466989954832,0.0,1.0
1623777958.875,0,0,0.0,0.0,1.0
1623777959.34375,0,0,260.1605876378595,0.0,1.0
1623777959.8125,0,0,0.0,0.0,1.0
1623777960.28125,0,0,19.469333851854092,0.0,1.0
1623777960.75,0,0,20.103154259271044,0.0,1.0
1623777961.21875,0,0,4.132401082936038,0.0,1.0
1623777961.6875,0,0,0.0,0.0,1.0
1623777962.15625,0,0,46.46493669331214,0.0,1.0
1623777962.625,0,0,-40.30780845614021,0.0,1.0
1623777963.09375,0,0,112.92754203386322,0.0,1.0
1623777963.5625,0,0,0.0,0.0,1.0
1623777964.03125,0,0,48.72274721701737,0.0,1.0
1623777964.5,0,0,2.678375006560202,0.0,1.0
1623777964.96875,0,0,-4.029723134232577,0.0,1.0
1623777965.4375,0,0,9.392857060140967,0.0,1.0
1623777965.90625,0,0,-7.248191145521531,0.0,1.0
1623777966.375,0,0,10.716213049912463,0.0,1.0
1623777966.84375,0,0,0.0,0.0,1.0
1623777967.3125,0,0,8.187549930120204,0.0,1.0
1623777967.78125,0,0,10.129259945275674,0.0,1.0
1623777968.25,0,0,0.0,0.0,1.0
1623777968.71875,0,0,12.548646335024973,0.0,1.0
1623777969.1875,0,0,0.0,0.0,1.0
1623777969.65625,0,0,0.0,0.0,1.0
1623777970.125,0,0,-1.130557305852723,0.0,1.0
1623777970.59375,0,0,13.15179412242641,0.0,1.0
1623777971.0625,0,0,4.745010534216117,0.0,1.0
1623777971.53125,0,0,0.0,0.0,1.0
1623777972.0,0,0,7.153782279882849,0.0,1.0
1623777972.46875,0,0,9.654277706066106,0.0,1.0
1623777972.9375,0,0,0.0,0.0,1.0
1623777973.40625,0,0,16.811901977456664,0.0,1.0
1623777973.875,0,0,3.5908269832198183,0.0,1.0
1623777974.34375,0,0,7.979766972367924,0.0,1.0
1623777974.8125,0,0,-0.6897736605583293,0.0,1.0
1623777975.28125,0,0,28.51883734119533,0.0,1.0
1623777975.75,0,0,3.1195959169953507,0.0,1.0
1623777976.21875,0,0,9.14854414123911,0.0,1.0
1623777976.6875,0,0,0.0,0.0,1.0
1623777977.15625,0,0,7.280913938122736,0.0,1.0
1623777977.625,0,0,8.466293842575414,0.0,1.0
1623777978.09375,0,0,0.0,0.0,1.0
1623777978.5625,0,0,9.422971161987583,0.0,1.0
1623777979.03125,0,0,6.8034459183616365,0.0,1.0
1623777979.5,0,0,0.0,0.0,1.0
1623777979.96875,0,0,6.074561118487625,0.0,1.0
1623777980.4375,0,0,4.976295095695755,0.0,1.0
1623777980.90625,0,0,3.1183385459328683,0.0,1.0
1623777981.375,0,0,0.0,0.0,1.0
1623777981.84375,0,0,0.0,0.0,1.0
1623777982.3125,0,0,3.250105219066066,0.0,1.0
1623777982.78125,0,0,22.672392444126952,0.0,1.0
1623777983.25,0,0,5.27999709174448,0.0,1.0
1623777983.71875,0,0,0.0,0.0,1.0
1623777984.1875,0,0,0.6318166730170441,0.0,1.0
1623777984.65625,0,0,9.385974303880431,0.0,1.0
1623777985.125,0,0,0.0,0.0,1.0
1623777985.59375,0,0,4.723497071798074,0.0,1.0
1623777986.0625,0,0,7.0093223190580956,0.0,1.0
1623777986.53125,0,0,0.0,0.0,1.0
1623777987.0,0,0,6.205308998945936,0.0,1.0
1623777987.46875,0,0,7.027995247121923,0.0,1.0
1623777987.9375,0,0,0.0,0.0,1.0
1623777988.40625,0,0,6.976998537378863,0.0,1.0
1623777988.875,0,0,9.479806465535647,0.0,1.0
1623777989.34375,0,0,0.0,0.0,1.0
1623777989.8125,0,0,-1.6626169480524162,0.0,1.0
1623777990.28125,0,0,52.132015146806935,0.0,1.0
1623777990.75,0,0,9.446407791613753,0.0,1.0
1623777991.21875,0,0,10.351317851902879,0.0,1.0
1623777991.6875,0,0,0.0,0.0,1.0
1623777992.15625,0,0,43.01365368180638,0.0,1.0
1623777992.625,0,0,0.0,0.0,1.0
1623777993.09375,0,0,-0.6853486648585715,0.0,1.0
1623777993.5625,0,0,0.0,0.0,1.0
1623777994.03125,0,0,31.216944550367444,0.0,1.0
1623777994.5,0,0,-4.36273626737822,0.0,1.0
1623777994.96875,0,0,2.4432076816588375,0.0,1.0
1623777995.4375,0,0,0.0,0.0,1.0
1623777995.90625,0,0,10.101551227751427,0.0,1.0
1623777996.375,0,0,0.0,0.0,1.0
1623777996.84375,0,0,7.228445383325978,0.0,1.0
1623777997.3125,0,0,4.0315542634512775,0.0,1.0
1623777997.78125,0,0,0.0,0.0,1.0
1623777998.25,0,0,40.858942708764815,0.0,1.0
1623777998.71875,0,0,0.0,0.0,1.0
1623777999.1875,0,0,7.922133804688169,0.0,1.0
1623777999.65625,0,0,-15.463919853795172,0.0,1.0
1623778000.125,0,0,44.1167504640197,0.0,1.0
1623778000.59375,0,0,4.487740942049097,0.0,1.0
1623778001.0625,0,0,-0.6787569815619,0.0,1.0
1623778001.53125,0,0,-4.063083573365982,0.0,1.0
1623778002.0,0,0,48.93255696255115,0.0,1.0
1623778002.46875,0,0,-4.129079329056429,0.0,1.0
1623778002.9375,0,0,3.403466313953981,0.0,1.0
1623778003.40625,0,0,1.925843192435826,0.0,1.0
1623778003.875,0,0,27.135369422276717,0.0,1.0
1623778004.34375,0,0,0.0,0.0,1.0
1623778004.8125,0,0,0.0,0.0,1.0
1623778005.28125,0,0,2.987362604661011,0.0,1.0
1623778005.75,0,0,27.35204901931387,0.0,1.0
1623778006.21875,0,0,0.9191963257172131,0.0,1.0
1623778006.6875,0,0,0.6910595212789331,0.0,1.0
1623778007.15625,0,0,3.7920843055851434,0.0,1.0
1623778007.625,0,0,32.80352604773631,0.0,1.0
1623778008.09375,0,0,0.0,0.0,1.0
1623778008.5625,0,0,0.5527699168323237,0.0,1.0
1623778009.03125,0,0,1.6147944403201093,0.0,1.0
1623778009.5,0,0,0.0,0.0,1.0
1623778009.96875,0,0,32.03457539100847,0.0,1.0
1623778010.4375,0,0,5.115030139057398,0.0,1.0
1623778010.90625,0,0,4.769374559910889,0.0,1.0
1623778011.375,0,0,3.1237204475906295,0.0,1.0
1623778011.84375,0,0,29.729015918684585,0.0,1.0
1623778012.3125,0,0,0.0,0.0,1.0
1623778012.78125,0,0,3.9872298581105534,0.0,1.0
1623778013.25,0,0,3.3567464011561827,0.0,1.0
1623778013.71875,0,0,38.80354554135401,0.0,1.0
1623778014.1875,0,0,-3.460967502901958,0.0,1.0
1623778014.65625,0,0,2.5035144204992363,0.0,1.0
1623778015.125,0,0,0.0,0.0,1.0
1623778015.59375,0,0,43.04821607232455,0.0,1.0
1623778016.0625,0,0,0.0,0.0,1.0
1623778016.53125,0,0,5.395995370681635,0.0,1.0
1623778017.0,0,0,2.824252993312076,0.0,1.0
1623778017.46875,0,0,32.54094670530219,0.0,1.0
1623778017.9375,0,0,0.0,0.0,1.0
1623778018.40625,0,0,7.485759459965649,0.0,1.0
1623778018.875,0,0,2.6489395674270613,0.0,1.0
1623778019.34375,0,0,20.763603580824537,0.0,1.0
1623778019.8125,0,0,0.0,0.0,1.0
1623778020.28125,0,0,0.0,0.0,1.0
1623778020.75,0,0,6.058019202596084,0.0,1.0
1623778021.21875,0,0,22.809291179378043,0.0,1.0
1623778021.6875,0,0,1.1456442311535868,0.0,1.0
1623778022.15625,0,0,-3.0968096454950453,0.0,1.0
1623778022.625,0,0,4.4424082731613534,0.0,1.0
1623778023.09375,0,0,26.713572330530724,0.0,1.0
1623778023.5625,0,0,0.0,0.0,1.0
1623778024.03125,0,0,0.563552851998184,0.0,1.0
1623778024.5,0,0,6.171880295595192,0.0,1.0
1623778024.96875,0,0,0.0,0.0,1.0
1623778025.4375,0,0,30.366757241915614,0.0,1.0
1623778025.90625,0,0,0.0,0.0,1.0
1623778026.375,0,0,8.079449093206152,0.0,1.0
1623778026.84375,0,0,0.0,0.0,1.0
1623778027.3125,0,0,14.246251992093974,0.0,1.0
1623778027.78125,0,0,0.0,0.0,1.0
1623778028.25,0,0,32.24085473108425,0.0,1.0
1623778028.71875,0,0,-8.604793708175075,0.0,1.0
1623778029.1875,0,0,14.740940218387419,0.0,1.0
1623778029.65625,0,0,3.385605470503333,0.0,1.0
1623778030.125,0,0,1.0671165467877708,0.0,1.0
1623778030.59375,0,0,4.805574899697572,0.0,1.0
1623778031.0625,0,0,0.0,0.0,1.0
1623778031.53125,0,0,0.0,0.0,1.0
1623778032.0,0,0,2.9181296278564743,0.0,1.0
1623778032.46875,0,0,9.977735117042517,0.0,1.0
1623778032.9375,0,0,0.0,0.0,1.0
1623778033.40625,0,0,3.255683248265292,0.0,1.0
1623778033.875,0,0,11.012124762709872,0.0,1.0
1623778034.34375,0,0,2.1063932790544255,0.0,1.0
1623778034.8125,0,0,0.0,0.0,1.0
1623778035.28125,0,0,16.73471484029354,0.0,1.0
1623778035.75,0,0,10.155281642156105,0.0,1.0
1623778036.21875,0,0,0.0,0.0,1.0
1623778036.6875,0,0,8.291932537110421,0.0,1.0
1623778037.15625,0,0,7.803922401146853,0.0,1.0
1623778037.625,0,0,0.0,0.0,1.0
1623778038.09375,0,0,6.930792729311844,0.0,1.0
1623778038.5625,0,0,8.072670462955571,0.0,1.0
1623778039.03125,0,0,7.2556861884110715,0.0,1.0
1623778039.5,0,0,0.0,0.0,1.0
1623778039.96875,0,0,7.633885648968924,0.0,1.0
1623778040.4375,0,0,7.947034620650064,0.0,1.0
1623778040.90625,0,0,0.0,0.0,1.0
1623778041.375,0,0,4.545979330206134,0.0,1.0
1623778041.84375,0,0,10.176948658593185,0.0,1.0
1623778042.3125,0,0,0.0,0.0,1.0
1623778042.78125,0,0,7.421670635461865,0.0,1.0
1623778043.25,0,0,8.662104196177477,0.0,1.0
1623778043.71875,0,0,0.0,0.0,1.0
1623778044.1875,0,0,6.7998426811782515,0.0,1.0
1623778044.65625,0,0,9.115414454749757,0.0,1.0
1623778045.125,0,0,8.253395873225408,0.0,1.0
1623778045.59375,0,0,6.353680165634246,0.0,1.0
1623778046.0625,0,0,5.500909876031252,0.0,1.0
1623778046.53125,0,0,0.0,0.0,1.0
1623778047.0,0,0,7.6696511872172755,0.0,1.0
1623778047.46875,0,0,-4.625538857571619,0.0,1.0
1623778047.9375,0,0,35.262851487334075,0.0,1.0
1623778048.40625,0,0,0.5062252701825476,0.0,1.0
1623778048.875,0,0,0.0,0.0,1.0
1623778049.34375,0,0,0.0,0.0,1.0
1623778049.8125,0,0,1.5040211668236518,0.0,1.0
1623778050.28125,0,0,2.7212770223122518,0.0,1.0
1623778050.75,0,0,0.0,0.0,1.0
1623778051.21875,0,0,6.999759887593402,0.0,1.0
1623778051.6875,0,0,-2.001384519387448,0.0,1.0
1623778052.15625,0,0,37.43672291308615,0.0,1.0
1623778052.625,0,0,1.2623772053926596,0.0,1.0
1623778053.09375,0,0,8.304275680448173,0.0,1.0
1623778053.5625,0,0,0.0,0.0,1.0
1623778054.03125,0,0,0.0,0.0,1.0
1623778054.5,0,0,38.95127107080373,0.0,1.0
1623778054.96875,0,0,0.56487894516947,0.0,1.0
1623778055.4375,0,0,-0.6208222256085214,0.0,1.0
1623778055.90625,0,0,19.570844657367957,0.0,1.0
1623778056.375,0,0,0.0,0.0,1.0
1623778056.84375,0,0,10.29085467803438,0.0,1.0
1623778057.3125,0,0,0.0,0.0,1.0
1623778057.78125,0,0,1.7690635173721654,0.0,1.0
1623778058.25,0,0,22.526410107553698,0.0,1.0
1623778058.71875,0,0,0.0,0.0,1.0
1623778059.1875,0,0,3.500519469162988,0.0,1.0
1623778059.65625,0,0,5.6129586230158575,0.0,1.0
1623778060.125,0,0,0.0,0.0,1.0
1623778060.59375,0,0,11.41942124950167,0.0,1.0
1623778061.0625,0,0,0.0,0.0,1.0
1623778061.53125,0,0,6.734536329057806,0.0,1.0
1623778062.0,0,0,6.538119353295967,0.0,1.0
1623778062.46875,0,0,12.240338529178347,0.0,1.0
1623778062.9375,0,0,6.113820124143491,0.0,1.0
1623778063.40625,0,0,-2.3161561253619363,0.0,1.0
1623778063.875,0,0,13.464016750759779,0.0,1.0
1623778064.34375,0,0,3.3632091121976115,0.0,1.0
1623778064.8125,0,0,15.013829244531038,0.0,1.0
1623778065.28125,0,0,0.0,0.0,1.0
1623778065.75,0,0,0.0,0.0,1.0
1623778066.21875,0,0,-1.0186629760067685,0.0,1.0
1623778066.6875,0,0,14.626509718669395,0.0,1.0
1623778067.15625,0,0,4.532610424705954,0.0,1.0
1623778067.625,0,0,0.0,0.0,1.0
1623778068.09375,0,0,6.11702339775775,0.0,1.0
1623778068.5625,0,0,25.386573089229053,0.0,1.0
1623778069.03125,0,0,0.0,0.0,1.0
1623778069.5,0,0,15.809317144289949,0.0,1.0
1623778069.96875,0,0,20.049056835335733,0.0,1.0
1623778070.4375,0,0,6.4908702755862375,0.0,1.0
1623778070.90625,0,0,0.0,0.0,1.0
1623778071.375,0,0,11.18011708651364,0.0,1.0
1623778071.84375,0,0,12.276081920400815,0.0,1.0
1623778072.3125,0,0,0.0,0.0,1.0
1623778072.78125,0,0,31.73078806412429,0.0,1.0
1623778073.25,0,0,-0.6783555331617817,0.0,1.0
1623778073.71875,0,0,0.0,0.0,1.0
1623778074.1875,0,0,23.96055682274838,0.0,1.0
1623778074.65625,0,0,-0.7191304740286888,0.0,1.0
1623778075.125,0,0,4.0812810877880095,0.0,1.0
1623778075.59375,0,0,0.36447309838227293,0.0,1.0
1623778076.0625,0,0,8.819873701104017,0.0,1.0
1623778076.53125,0,0,17.744800480452827,0.0,1.0
1623778077.0,0,0,0.8597080673571778,0.0,1.0
1623778077.46875,0,0,7.0521890465840755,0.0,1.0
1623778077.9375,0,0,-3.775888771447688,0.0,1.0
1623778078.40625,0,0,22.808544120049024,0.0,1.0
1623778078.875,0,0,-4.216020261903301,0.0,1.0
1623778079.34375,0,0,4.545662069676576,0.0,1.0
1623778079.8125,0,0,3.5632939886629704,0.0,1.0
1623778080.28125,0,0,0.9280180184174404,0.0,1.0
1623778080.75,0,0,16.824026889661415,0.0,1.0
1623778081.21875,0,0,13.731156991436714,0.0,1.0
1623778081.6875,0,0,0.0,0.0,1.0
1623778082.15625,0,0,-6.932659251211896,0.0,1.0
1623778082.625,0,0,11.064592854459818,0.0,1.0
1623778083.09375,0,0,3.225150655890985,0.0,1.0
1623778083.5625,0,0,6.771085980260128,0.0,1.0
1623778084.03125,0,0,-1.6126518379914816,0.0,1.0
1623778084.5,0,0,19.56728174975615,0.0,1.0
1623778084.96875,0,0,5.380023255265061,0.0,1.0
1623778085.4375,0,0,3.9067770829579613,0.0,1.0
1623778085.90625,0,0,4.169910481229259,0.0,1.0
1623778086.375,0,0,32.85474978809555,0.0,1.0
1623778086.84375,0,0,6.483472900944931,0.0,1.0
1623778087.3125,0,0,1.3382612806734349,0.0,1.0
1623778087.78125,0,0,10.921626670839165,0.0,1.0
1623778088.25,0,0,10.61640362544041,0.0,1.0
1623778088.71875,0,0,11.714004738299364,0.0,1.0
1623778089.1875,0,0,0.0,0.0,1.0
1623778089.65625,0,0,10.564160150973393,0.0,1.0
1623778090.125,0,0,0.0,0.0,1.0
1623778090.59375,0,0,5.700359812373298,0.0,1.0
1623778091.0625,0,0,8.211477714523337,0.0,1.0
1623778091.53125,0,0,6.636990450152198,0.0,1.0
1623778092.0,0,0,0.0,0.0,1.0
1623778092.46875,0,0,7.40896829334518,0.0,1.0
1623778092.9375,0,0,19.538244804589016,0.0,1.0
1623778093.40625,0,0,6.038647140659601,0.0,1.0
1623778093.875,0,0,1.45058226485623,0.0,1.0
1623778094.34375,0,0,9.276596056862823,0.0,1.0
1623778094.8125,0,0,0.0,0.0,1.0
1623778095.28125,0,0,5.300773851839841,0.0,1.0
1623778095.75,0,0,7.557586432127737,0.0,1.0
1623778096.21875,0,0,0.0,0.0,1.0
1623778096.6875,0,0,4.340832840314986,0.0,1.0
1623778097.15625,0,0,5.097167636762364,0.0,1.0
1623778097.625,0,0,0.0,0.0,1.0
1623778098.09375,0,0,6.535655966430047,0.0,1.0
1623778098.5625,0,0,6.550942287203553,0.0,1.0
1623778099.03125,0,0,7.449552554006193,0.0,1.0
1623778099.5,0,0,0.0,0.0,1.0
1623778099.96875,0,0,8.907232585760752,0.0,1.0
1623778100.4375,0,0,0.0,0.0,1.0
1623778100.90625,0,0,8.647293693708189,0.0,1.0
1623778101.375,0,0,15.327603022638149,0.0,1.0
1623778101.84375,0,0,0.0,0.0,1.0
1623778102.3125,0,0,6.699969689750954,0.0,1.0
1623778102.78125,0,0,0.0,0.0,1.0
1623778103.25,0,0,9.279288459027375,0.0,1.0
1623778103.71875,0,0,10.121838905855286,0.0,1.0
1623778104.1875,0,0,0.0,0.0,1.0
1623778104.65625,0,0,11.499508041494499,0.0,1.0
1623778105.125,0,0,0.0,0.0,1.0
1623778105.59375,0,0,9.34691794976208,0.0,1.0
1623778106.0625,0,0,5.058290470953105,0.0,1.0
1623778106.53125,0,0,2.818951866504215,0.0,1.0
1623778107.0,0,0,8.644911810399968,0.0,1.0
1623778107.46875,0,0,0.0,0.0,1.0
1623778107.9375,0,0,45.89045187002072,0.0,1.0
1623778108.40625,0,0,1.6379990319947189,0.0,1.0
1623778108.875,0,0,-1.669192623386856,0.0,1.0
1623778109.34375,0,0,27.826846850578033,0.0,1.0
1623778109.8125,0,0,11.007130476493781,0.0,1.0
1623778110.28125,0,0,11.186608233591336,0.0,1.0
1623778110.75,0,0,0.0,0.0,1.0
1623778111.21875,0,0,2.9956302765749303,0.0,1.0
1623778111.6875,0,0,40.131454440615556,0.0,1.0
1623778112.15625,0,0,-7.924333347465484,0.0,1.0
1623778112.625,0,0,6.670251582182181,0.0,1.0
1623778113.09375,0,0,13.541093669395554,0.0,1.0
1623778113.5625,0,0,0.0,0.0,1.0
1623778114.03125,0,0,-4.771133625081806,0.0,1.0
1623778114.5,0,0,56.317392544418375,0.0,1.0
1623778114.96875,0,0,-8.955255861912795,0.0,1.0
1623778115.4375,0,0,-1.6529039007779454,0.0,1.0
1623778115.90625,0,0,63.20893384448894,0.0,1.0
1623778116.375,0,0,0.0,0.0,1.0
1623778116.84375,0,0,-3.320022988271707,0.0,1.0
1623778117.3125,0,0,32.876965564794396,0.0,1.0
1623778117.78125,0,0,0.0,0.0,1.0
1623778118.25,0,0,0.0,0.0,1.0
1623778118.71875,0,0,0.0,0.0,1.0
1623778119.1875,0,0,51.16282384857765,0.0,1.0
1623778119.65625,0,0,0.0,0.0,1.0
1623778120.125,0,0,5.814379362702363,0.0,1.0
1623778120.59375,0,0,7.771361885968814,0.0,1.0
1623778121.0625,0,0,0.0,0.0,1.0
1623778121.53125,0,0,40.67726788129735,0.0,1.0
1623778122.0,0,0,0.0,0.0,1.0
1623778122.46875,0,0,8.163283298952086,0.0,1.0
1623778122.9375,0,0,-1.2745095783668179,0.0,1.0
1623778123.40625,0,0,46.23781887608407,0.0,1.0
1623778123.875,0,0,0.0,0.0,1.0
1623778124.34375,0,0,10.689600306736143,0.0,1.0
1623778124.8125,0,0,10.538079687088677,0.0,1.0
1623778125.28125,0,0,-13.062343091696949,0.0,1.0
1623778125.75,0,0,75.7233169107718,0.0,1.0
1623778126.21875,0,0,6.393752969900662,0.0,1.0
1623778126.6875,0,0,13.871204052147515,0.0,1.0
1623778127.15625,0,0,0.0,0.0,1.0
1623778127.625,0,0,74.86527756127323,0.0,1.0
1623778128.09375,0,0,0.0,0.0,1.0
1623778128.5625,0,0,5.329313134069302,0.0,1.0
1623778129.03125,0,0,6.580592512700753,0.0,1.0
1623778129.5,0,0,27.589673699503685,0.0,1.0
1623778129.96875,0,0,-5.88459410297776,0.0,1.0
1623778130.4375,0,0,10.715471045874247,0.0,1.0
1623778130.90625,0,0,0.0,0.0,1.0
1623778131.375,0,0,31.703429386370235,0.0,1.0
1623778131.84375,0,0,0.0,0.0,1.0
1623778132.3125,0,0,14.582278882532059,0.0,1.0
1623778132.78125,0,0,12.160580209426838,0.0,1.0
1623778133.25,0,0,26.54074662954177,0.0,1.0
1623778133.71875,0,0,0.0,0.0,1.0
1623778134.1875,0,0,7.929997679026503,0.0,1.0
1623778134.65625,0,0,-3.8793554307108273,0.0,1.0
1623778135.125,0,0,17.99648254944287,0.0,1.0
1623778135.59375,0,0,0.0,0.0,1.0
1623778136.0625,0,0,10.117720683736803,0.0,1.0
1623778136.53125,0,0,0.0,0.0,1.0
1623778137.0,0,0,4.177286485890835,0.0,1.0
1623778137.46875,0,0,43.99310582505381,0.0,1.0
1623778137.9375,0,0,0.0,0.0,1.0
1623778138.40625,0,0,3.633554106004869,0.0,1.0
1623778138.875,0,0,23.426476770023857,0.0,1.0
1623778139.34375,0,0,1.3348837874234727,0.0,1.0
1623778139.8125,0,0,6.837336288288189,0.0,1.0
1623778140.28125,0,0,0.0,0.0,1.0
1623778140.75,0,0,7.990637879513133,0.0,1.0
1623778141.21875,0,0,4.068095401715482,0.0,1.0
1623778141.6875,0,0,0.0,0.0,1.0
1623778142.15625,0,0,0.0,0.0,1.0
1623778142.625,0,0,2.4333711358542334,0.0,1.0
1623778143.09375,0,0,26.622430893639486,0.0,1.0
1623778143.5625,0,0,0.0,0.0,1.0
1623778144.03125,0,0,11.638933532991423,0.0,1.0
1623778144.5,0,0,7.607428173923538,0.0,1.0
1623778144.96875,0,0,-2.4301834387255994,0.0,1.0
1623778145.4375,0,0,36.836846972835005,0.0,1.0
1623778145.90625,0,0,0.0,0.0,1.0
1623778146.375,0,0,2.7673504145483125,0.0,1.0
1623778146.84375,0,0,12.202141728743605,0.0,1.0
1623778147.3125,0,0,0.0,0.0,1.0
1623778147.78125,0,0,30.89352341024362,0.0,1.0
1623778148.25,0,0,4.843570576183456,0.0,1.0
1623778148.71875,0,0,0.4504333184827677,0.0,1.0
1623778149.1875,0,0,2.0775846519479684,0.0,1.0
1623778149.65625,0,0,9.049421126327513,0.0,1.0
1623778150.125,0,0,17.62512572879927,0.0,1.0
1623778150.59375,0,0,0.0,0.0,1.0
1623778151.0625,0,0,3.66481219685729,0.0,1.0
1623778151.53125,0,0,6.943245178148106,0.0,1.0
1623778152.0,0,0,0.0,0.0,1.0
1623778152.46875,0,0,7.045663999672662,0.0,1.0
1623778152.9375,0,0,0.0,0.0,1.0
1623778153.40625,0,0,6.019661337558434,0.0,1.0
1623778153.875,0,0,6.42031840857242,0.0,1.0
1623778154.34375,0,0,0.0,0.0,1.0
1623778154.8125,0,0,6.049791143394898,0.0,1.0
1623778155.28125,0,0,6.580152140174129,0.0,1.0
1623778155.75,0,0,0.0,0.0,1.0
1623778156.21875,0,0,6.71532713506443,0.0,1.0
1623778156.6875,0,0,0.0,0.0,1.0
1623778157.15625,0,0,7.143706258841792,0.0,1.0
1623778157.625,0,0,6.800720342792287,0.0,1.0
1623778158.09375,0,0,4.191293461049697,0.0,1.0
1623778158.5625,0,0,6.817354070353238,0.0,1.0
1623778159.03125,0,0,0.0,0.0,1.0
1623778159.5,0,0,8.502951619273478,0.0,1.0
1623778159.96875,0,0,8.076016229656641,0.0,1.0
1623778160.4375,0,0,0.0,0.0,1.0
1623778160.90625,0,0,8.491545112270938,0.0,1.0
1623778161.375,0,0,0.0,0.0,1.0
1623778161.84375,0,0,0.0,0.0,1.0
1623778162.3125,0,0,11.911682214233183,0.0,1.0
1623778162.78125,0,0,0.0,0.0,1.0
1623778163.25,0,0,9.116335388682662,0.0,1.0
1623778163.71875,0,0,8.67478714511611,0.0,1.0
1623778164.1875,0,0,0.0,0.0,1.0
1623778164.65625,0,0,38.09086711804141,0.0,1.0
1623778165.125,0,0,0.0,0.0,1.0
1623778165.59375,0,0,11.994559226260415,0.0,1.0
1623778166.0625,0,0,0.0,0.0,1.0
1623778166.53125,0,0,39.38847612449969,0.0,1.0
1623778167.0,0,0,5.770900820404912,0.0,1.0
1623778167.46875,0,0,0.0,0.0,1.0
1623778167.9375,0,0,6.951575943143371,0.0,1.0
1623778168.40625,0,0,11.328994097710046,0.0,1.0
1623778168.875,0,0,0.0,0.0,1.0
1623778169.34375,0,0,7.466448085968083,0.0,1.0
1623778169.8125,0,0,0.0,0.0,1.0
1623778170.28125,0,0,37.41157129128318,0.0,1.0
1623778170.75,0,0,5.104139878991537,0.0,1.0
1623778171.21875,0,0,2.3407261156337587,0.0,1.0
1623778171.6875,0,0,7.777310488399654,0.0,1.0
1623778172.15625,0,0,19.647863977177682,0.0,1.0
1623778172.625,0,0,0.0,0.0,1.0
1623778173.09375,0,0,10.75459184114724,0.0,1.0
1623778173.5625,0,0,0.0,0.0,1.0
1623778174.03125,0,0,15.888808859113222,0.0,1.0
1623778174.5,0,0,2.855826542083599,0.0,1.0
1623778174.96875,0,0,3.1235103504448505,0.0,1.0
1623778175.4375,0,0,3.8563998337481777,0.0,1.0
1623778175.90625,0,0,6.9511966887059975,0.0,1.0
1623778176.375,0,0,10.587020431205133,0.0,1.0
1623778176.84375,0,0,0.0,0.0,1.0
1623778177.3125,0,0,7.688493794586908,0.0,1.0
1623778177.78125,0,0,14.038992023465232,0.0,1.0
1623778178.25,0,0,0.0,0.0,1.0
1623778178.71875,0,0,3.600958177008832,0.0,1.0
1623778179.1875,0,0,7.278121720654977,0.0,1.0
1623778179.65625,0,0,0.0,0.0,1.0
1623778180.125,0,0,31.878466972061684,0.0,1.0
1623778180.59375,0,0,0.0,0.0,1.0
1623778181.0625,0,0,15.314754538279578,0.0,1.0
1623778181.53125,0,0,0.0,0.0,1.0
1623778182.0,0,0,22.991578594664663,0.0,1.0
1623778182.46875,0,0,4.561455406432594,0.0,1.0
1623778182.9375,0,0,11.684127171192426,0.0,1.0
1623778183.40625,0,0,0.0,0.0,1.0
1623778183.875,0,0,11.973234612657384,0.0,1.0
1623778184.34375,0,0,0.0,0.0,1.0
1623778184.8125,0,0,12.157514256373688,0.0,1.0
1623778185.28125,0,0,0.5318041992850665,0.0,1.0
1623778185.75,0,0,19.962155764284443,0.0,1.0
1623778186.21875,0,0,0.0,0.0,1.0
1623778186.6875,0,0,-2.25890151217838,0.0,1.0
1623778187.15625,0,0,10.374759776562083,0.0,1.0
1623778187.625,0,0,0.0,0.0,1.0
1623778188.09375,0,0,0.0,0.0,1.0
1623778188.5625,0,0,6.055703816287148,0.0,1.0
1623778189.03125,0,0,0.0,0.0,1.0
1623778189.5,0,0,14.343152657516194,0.0,1.0
1623778189.96875,0,0,5.372650001542042,0.0,1.0
1623778190.4375,0,0,4.739348646147847,0.0,1.0
1623778190.90625,0,0,4.483519186673512,0.0,1.0
1623778191.375,0,0,0.0,0.0,1.0
1623778191.84375,0,0,0.0,0.0,1.0
1623778192.3125,0,0,8.307563493867265,0.0,1.0
1623778192.78125,0,0,4.21796378930279,0.0,1.0
1623778193.25,0,0,0.04547861916023801,0.0,1.0
1623778193.71875,0,0,17.330313498173297,0.0,1.0
1623778194.1875,0,0,0.8939746010183323,0.0,1.0
1623778194.65625,0,0,10.635410703937891,0.0,1.0
1623778195.125,0,0,0.0,0.0,1.0
1623778195.59375,0,0,27.430474032577745,0.0,1.0
1623778196.0625,0,0,0.0,0.0,1.0
1623778196.53125,0,0,6.762527802781696,0.0,1.0
1623778197.0,0,0,7.456474124583792,0.0,1.0
1623778197.46875,0,0,4.184023701258113,0.0,1.0
1623778197.9375,0,0,12.634892718428175,0.0,1.0
1623778198.40625,0,0,0.0,0.0,1.0
1623778198.875,0,0,1.1652798235243298,0.0,1.0
1623778199.34375,0,0,23.038002843336233,0.0,1.0
1623778199.8125,0,0,0.0,0.0,1.0
1623778200.28125,0,0,4.873445785072438,0.0,1.0
1623778200.75,0,0,12.34617454716991,0.0,1.0
1623778201.21875,0,0,14.66724392656567,0.0,1.0
1623778201.6875,0,0,8.181848258912455,0.0,1.0
1623778202.15625,0,0,0.0,0.0,1.0
1623778202.625,0,0,8.468826922204924,0.0,1.0
1623778203.09375,0,0,38.788165759289214,0.0,1.0
1623778203.5625,0,0,0.0,0.0,1.0
1623778204.03125,0,0,11.593212619718383,0.0,1.0
1623778204.5,0,0,1.3980597101909704,0.0,1.0
1623778204.96875,0,0,25.868747335522816,0.0,1.0
1623778205.4375,0,0,-0.7371449300308637,0.0,1.0
1623778205.90625,0,0,-1.7880542183735895,0.0,1.0
1623778206.375,0,0,8.636990637532714,0.0,1.0
1623778206.84375,0,0,4.3848542263992325,0.0,1.0
1623778207.3125,0,0,5.308996603783147,0.0,1.0
1623778207.78125,0,0,7.195811271382179,0.0,1.0
1623778208.25,0,0,2.9228538179591492,0.0,1.0
1623778208.71875,0,0,8.99381500281764,0.0,1.0
1623778209.1875,0,0,0.0,0.0,1.0
1623778209.65625,0,0,8.908417523031003,0.0,1.0
1623778210.125,0,0,4.727726573803792,0.0,1.0
1623778210.59375,0,0,5.534441619177019,0.0,1.0
1623778211.0625,0,0,4.719332784354195,0.0,1.0
1623778211.53125,0,0,8.696816480664014,0.0,1.0
1623778212.0,0,0,0.0,0.0,1.0
1623778212.46875,0,0,3.2970698661433264,0.0,1.0
1623778212.9375,0,0,6.12054980697372,0.0,1.0
1623778213.40625,0,0,0.0,0.0,1.0
1623778213.875,0,0,7.842996550539828,0.0,1.0
1623778214.34375,0,0,9.02082891723133,0.0,1.0
1623778214.8125,0,0,0.0,0.0,1.0
1623778215.28125,0,0,7.475369788942982,0.0,1.0
1623778215.75,0,0,8.88738312217924,0.0,1.0
1623778216.21875,0,0,0.0,0.0,1.0
1623778216.6875,0,0,6.786379334079018,0.0,1.0
1623778217.15625,0,0,0.0,0.0,1.0
1623778217.625,0,0,7.405933214049429,0.0,1.0
1623778218.09375,0,0,0.0,0.0,1.0
1623778218.5625,0,0,0.0,0.0,1.0
1623778219.03125,0,0,0.0,0.0,1.0
1623778219.5,0,0,9.22345066477118,0.0,1.0
1623778219.96875,0,0,0.29798661197642695,0.0,1.0
1623778220.4375,0,0,0.031254964971884666,0.0,1.0
1623778220.90625,0,0,8.775985557700622,0.0,1.0
1623778221.375,0,0,-1.1041865748964206,0.0,1.0
1623778221.84375,0,0,1.1093801047320968,0.0,1.0
1623778222.3125,0,0,7.496402175994749,0.0,1.0
1623778222.78125,0,0,5.0080805152762,0.0,1.0
1623778223.25,0,0,2.408869144575381,0.0,1.0
1623778223.71875,0,0,3.4636502753332157,0.0,1.0
1623778224.1875,0,0,16.346771086604154,0.0,1.0
1623778224.65625,0,0,6.753172447620188,0.0,1.0
1623778225.125,0,0,3.707811657662288,0.0,1.0
1623778225.59375,0,0,5.300837653730558,0.0,1.0
1623778226.0625,0,0,12.505382659816517,0.0,1.0
1623778226.53125,0,0,-4.038191944403604,0.0,1.0
1623778227.0,0,0,10.307945873715626,0.0,1.0
1623778227.46875,0,0,9.34817738864408,0.0,1.0
1623778227.9375,0,0,5.4930272152704305,0.0,1.0
1623778228.40625,0,0,10.334134747422699,0.0,1.0
1623778228.875,0,0,8.71064280728911,0.0,1.0
1623778229.34375,0,0,0.0,0.0,1.0
1623778229.8125,0,0,-0.9854386687210122,0.0,1.0
1623778230.28125,0,0,48.07498222783941,0.0,1.0
1623778230.75,0,0,-5.255578593114141,0.0,1.0
1623778231.21875,0,0,10.026109373285689,0.0,1.0
1623778231.6875,0,0,8.15915647071001,0.0,1.0
1623778232.15625,0,0,-8.064829504954597,0.0,1.0
1623778232.625,0,0,33.84762855020505,0.0,1.0
1623778233.09375,0,0,8.150013382651743,0.0,1.0
1623778233.5625,0,0,7.410070748260207,0.0,1.0
1623778234.03125,0,0,0.0,0.0,1.0
1623778234.5,0,0,34.40810576841609,0.0,1.0
1623778234.96875,0,0,10.996888025784829,0.0,1.0
1623778235.4375,0,0,0.0,0.0,1.0
1623778235.90625,0,0,3.7162284159858063,0.0,1.0
1623778236.375,0,0,34.80721936197734,0.0,1.0
1623778236.84375,0,0,0.7009951639762315,0.0,1.0
1623778237.3125,0,0,8.159223180261252,0.0,1.0
1623778237.78125,0,0,1.2554822831625607,0.0,1.0
1623778238.25,0,0,32.6519870547602,0.0,1.0
1623778238.71875,0,0,-3.277316684443777,0.0,1.0
1623778239.1875,0,0,1.1161926134938915,0.0,1.0
1623778239.65625,0,0,9.86258942435867,0.0,1.0
1623778240.125,0,0,2.5101364778606547,0.0,1.0
1623778240.59375,0,0,23.23882668695045,0.0,1.0
1623778241.0625,0,0,3.8173539190748906,0.0,1.0
1623778241.53125,0,0,6.0017190163004255,0.0,1.0
1623778242.0,0,0,0.0,0.0,1.0
1623778242.46875,0,0,38.70317618471557,0.0,1.0
1623778242.9375,0,0,7.208316092644938,0.0,1.0
1623778243.40625,0,0,0.0,0.0,1.0
1623778243.875,0,0,-2.8012977418309615,0.0,1.0
1623778244.34375,0,0,46.29500722249205,0.0,1.0
1623778244.8125,0,0,2.773637329843374,0.0,1.0
1623778245.28125,0,0,11.45270540780763,0.0,1.0
1623778245.75,0,0,-4.643250883775555,0.0,1.0
1623778246.21875,0,0,53.75271117178545,0.0,1.0
1623778246.6875,0,0,5.887484698014207,0.0,1.0
1623778247.15625,0,0,11.169386207543255,0.0,1.0
1623778247.625,0,0,5.111287152789305,0.0,1.0
1623778248.09375,0,0,4.54546179294779,0.0,1.0
1623778248.5625,0,0,28.645003703427943,0.0,1.0
1623778249.03125,0,0,-6.092423509834298,0.0,1.0
1623778249.5,0,0,14.973791976833283,0.0,1.0
1623778249.96875,0,0,2.893323494254268,0.0,1.0
1623778250.4375,0,0,4.255235391454074,0.0,1.0
1623778250.90625,0,0,39.94649506745673,0.0,1.0
1623778251.375,0,0,7.42862612397275,0.0,1.0
1623778251.84375,0,0,0.0,0.0,1.0
1623778252.3125,0,0,5.175837137571464,0.0,1.0
1623778252.78125,0,0,31.43325193268257,0.0,1.0
1623778253.25,0,0,12.631333843661096,0.0,1.0
1623778253.71875,0,0,-4.489122070504529,0.0,1.0
1623778254.1875,0,0,44.52124969484463,0.0,1.0
1623778254.65625,0,0,0.0,0.0,1.0
1623778255.125,0,0,4.606260117402902,0.0,1.0
1623778255.59375,0,0,4.8840233233007275,0.0,1.0
1623778256.0625,0,0,9.626485243060786,0.0,1.0
1623778256.53125,0,0,0.0,0.0,1.0
1623778257.0,0,0,9.959805861850635,0.0,1.0
1623778257.46875,0,0,8.68282549847759,0.0,1.0
1623778257.9375,0,0,0.0,0.0,1.0
1623778258.40625,0,0,7.453510982825871,0.0,1.0
1623778258.875,0,0,14.462001924584923,0.0,1.0
1623778259.34375,0,0,0.0,0.0,1.0
1623778259.8125,0,0,4.706279432827047,0.0,1.0
1623778260.28125,0,0,0.0,0.0,1.0
1623778260.75,0,0,13.69654383058628,0.0,1.0
1623778261.21875,0,0,9.570225695199179,0.0,1.0
1623778261.6875,0,0,8.050645299569414,0.0,1.0
1623778262.15625,0,0,0.0,0.0,1.0
1623778262.625,0,0,12.58726591583728,0.0,1.0
1623778263.09375,0,0,6.223046552798115,0.0,1.0
1623778263.5625,0,0,1.3343867231363136,0.0,1.0
1623778264.03125,0,0,7.214582168235774,0.0,1.0
1623778264.5,0,0,11.78305243816524,0.0,1.0
1623778264.96875,0,0,0.0,0.0,1.0
1623778265.4375,0,0,7.166057833994415,0.0,1.0
1623778265.90625,0,0,-2.042338733537745,0.0,1.0
1623778266.375,0,0,2.3523697723001784,0.0,1.0
1623778266.84375,0,0,54.014961545835334,0.0,1.0
1623778267.3125,0,0,-71.87035165865424,0.0,1.0
1623778267.78125,0,0,137.20556640501172,0.0,1.0
1623778268.25,0,0,-9.768911240481515,0.0,1.0
1623778268.71875,0,0,0.0,0.0,1.0
1623778269.1875,0,0,4.22368181460705,0.0,1.0
1623778269.65625,0,0,8.640215049598616,0.0,1.0
1623778270.125,0,0,5.050278054932566,0.0,1.0
1623778270.59375,0,0,0.0,0.0,1.0
1623778271.0625,0,0,4.992940260526489,0.0,1.0
1623778271.53125,0,0,8.628621484078092,0.0,1.0
1623778272.0,0,0,8.840767210495587,0.0,1.0
1623778272.46875,0,0,-0.6973987422766862,0.0,1.0
1623778272.9375,0,0,0.0,0.0,1.0
1623778273.40625,0,0,0.0,0.0,1.0
1623778273.875,0,0,0.0,0.0,1.0
1623778274.34375,0,0,0.0,0.0,1.0
1623778274.8125,0,0,373.16294046915687,0.0,1.0
1623778275.28125,0,0,0.0,0.0,1.0
1623778275.75,0,0,18.191084092693757,0.0,1.0
1623778276.21875,0,0,38.98269078411351,0.0,1.0
1623778276.6875,0,0,19.987827732668404,0.0,1.0
1623778277.15625,0,0,-2.285592659864679,0.0,1.0
1623778277.625,0,0,-7.869950814093725,0.0,1.0
1623778278.09375,0,0,16.093752980479444,0.0,1.0
1623778278.5625,0,0,8.200302201109618,0.0,1.0
1623778279.03125,0,0,0.0,0.0,1.0
1623778279.5,0,0,8.020828206372036,0.0,1.0
1623778279.96875,0,0,10.639516001302205,0.0,1.0
1623778280.4375,0,0,10.526475067334577,0.0,1.0
1623778280.90625,0,0,0.18328054066569832,0.0,1.0
1623778281.375,0,0,12.356506751790967,0.0,1.0
1623778281.84375,0,0,65.16518632417008,0.0,1.0
1623778282.3125,0,0,-12.546705132124165,0.0,1.0
1623778282.78125,0,0,11.77255546188937,0.0,1.0
1623778283.25,0,0,51.081344214366005,0.0,1.0
1623778283.71875,0,0,-2.2194534177985106,0.0,1.0
1623778284.1875,0,0,10.588101492239353,0.0,1.0
1623778284.65625,0,0,0.0,0.0,1.0
1623778285.125,0,0,4.9812069597462525,0.0,1.0
1623778285.59375,0,0,13.728753502824349,0.0,1.0
1623778286.0625,0,0,0.0,0.0,1.0
1623778286.53125,0,0,10.781346531812554,0.0,1.0
1623778287.0,0,0,0.0,0.0,1.0
1623778287.46875,0,0,25.801606894209982,0.0,1.0
1623778287.9375,0,0,7.275381181588219,0.0,1.0
1623778288.40625,0,0,5.748109162057795,0.0,1.0
1623778288.875,0,0,8.214231969820675,0.0,1.0
1623778289.34375,0,0,0.0,0.0,1.0
1623778289.8125,0,0,0.0,0.0,1.0
1623778290.28125,0,0,4.294292864850152,0.0,1.0
1623778290.75,0,0,6.277265793493055,0.0,1.0
1623778291.21875,0,0,28.66112236673696,0.0,1.0
1623778291.6875,0,0,5.1037208970114225,0.0,1.0
1623778292.15625,0,0,3.1955194193135488,0.0,1.0
1623778292.625,0,0,6.532692281309772,0.0,1.0
1623778293.09375,0,0,43.97658933927077,0.0,1.0
1623778293.5625,0,0,0.0,0.0,1.0
1623778294.03125,0,0,10.624513868035464,0.0,1.0
1623778294.5,0,0,0.0,0.0,1.0
1623778294.96875,0,0,-2.028848676124982,0.0,1.0
1623778295.4375,0,0,36.675283984926814,0.0,1.0
1623778295.90625,0,0,-0.6648659641656376,0.0,1.0
1623778296.375,0,0,10.580673978503564,0.0,1.0
1623778296.84375,0,0,0.0,0.0,1.0
1623778297.3125,0,0,36.16042631834034,0.0,1.0
1623778297.78125,0,0,0.0,0.0,1.0
1623778298.25,0,0,8.646506941996483,0.0,1.0
1623778298.71875,0,0,0.8757282170354579,0.0,1.0
1623778299.1875,0,0,31.715950361022195,0.0,1.0
1623778299.65625,0,0,8.232145629886856,0.0,1.0
1623778300.125,0,0,-5.739633784560874,0.0,1.0
1623778300.59375,0,0,9.757430358116727,0.0,1.0
1623778301.0625,0,0,40.84171455160954,0.0,1.0
1623778301.53125,0,0,0.0,0.0,1.0
1623778302.0,0,0,12.649225271221505,0.0,1.0
1623778302.46875,0,0,7.7809811942021945,0.0,1.0
1623778302.9375,0,0,0.0,0.0,1.0
1623778303.40625,0,0,39.74800506207176,0.0,1.0
1623778303.875,0,0,0.0,0.0,1.0
1623778304.34375,0,0,5.579180968808198,0.0,1.0
1623778304.8125,0,0,0.0,0.0,1.0
1623778305.28125,0,0,33.929241671642636,0.0,1.0
1623778305.75,0,0,7.347827578032527,0.0,1.0
1623778306.21875,0,0,5.29759955574401,0.0,1.0
1623778306.6875,0,0,4.729773152764455,0.0,1.0
1623778307.15625,0,0,20.783750096191774,0.0,1.0
1623778307.625,0,0,0.0,0.0,1.0
1623778308.09375,0,0,10.258655557702749,0.0,1.0
1623778308.5625,0,0,0.0,0.0,1.0
1623778309.03125,0,0,40.27521569402508,0.0,1.0
1623778309.5,0,0,0.0,0.0,1.0
1623778309.96875,0,0,9.671033500622034,0.0,1.0
1623778310.4375,0,0,-0.2614171930840989,0.0,1.0
1623778310.90625,0,0,33.15007401830194,0.0,1.0
1623778311.375,0,0,1.0675373331983438,0.0,1.0
1623778311.84375,0,0,1.2588815772569746,0.0,1.0
1623778312.3125,0,0,9.976499622057634,0.0,1.0
1623778312.78125,0,0,36.28579630425977,0.0,1.0
1623778313.25,0,0,0.0,0.0,1.0
1623778313.71875,0,0,9.43987800973151,0.0,1.0
1623778314.1875,0,0,7.7877582269793555,0.0,1.0
1623778314.65625,0,0,0.0,0.0,1.0
1623778315.125,0,0,34.00991898547577,0.0,1.0
1623778315.59375,0,0,0.0,0.0,1.0
1623778316.0625,0,0,12.996352305315504,0.0,1.0
1623778316.53125,0,0,0.0,0.0,1.0
1623778317.0,0,0,50.432251440946835,0.0,1.0
1623778317.46875,0,0,6.473904557969209,0.0,1.0
1623778317.9375,0,0,9.584880181105435,0.0,1.0
1623778318.40625,0,0,-1.2518889273975657,0.0,1.0
1623778318.875,0,0,33.12877958551316,0.0,1.0
1623778319.34375,0,0,0.5670277912533197,0.0,1.0
1623778319.8125,0,0,0.0,0.0,1.0
1623778320.28125,0,0,6.645489575153524,0.0,1.0
1623778320.75,0,0,24.71818513805816,0.0,1.0
1623778321.21875,0,0,-3.1454157384385875,0.0,1.0
1623778321.6875,0,0,11.954431381726325,0.0,1.0
1623778322.15625,0,0,0.0,0.0,1.0
1623778322.625,0,0,34.775642587755776,0.0,1.0
1623778323.09375,0,0,0.0,0.0,1.0
1623778323.5625,0,0,2.803507683905412,0.0,1.0
1623778324.03125,0,0,11.027298692255334,0.0,1.0
1623778324.5,0,0,0.0,0.0,1.0
1623778324.96875,0,0,7.10787630613915,0.0,1.0
1623778325.4375,0,0,0.0,0.0,1.0
1623778325.90625,0,0,0.0,0.0,1.0
1623778326.375,0,0,10.084001288211873,0.0,1.0
1623778326.84375,0,0,0.0,0.0,1.0
1623778327.3125,0,0,8.751603695170811,0.0,1.0
1623778327.78125,0,0,11.92063393530999,0.0,1.0
1623778328.25,0,0,0.0,0.0,1.0
1623778328.71875,0,0,4.915495425117267,0.0,1.0
1623778329.1875,0,0,11.229228466776604,0.0,1.0
1623778329.65625,0,0,8.793703227173832,0.0,1.0
1623778330.125,0,0,0.0,0.0,1.0
1623778330.59375,0,0,8.46202333925938,0.0,1.0
1623778331.0625,0,0,8.13223063085844,0.0,1.0
1623778331.53125,0,0,6.125424999198335,0.0,1.0
1623778332.0,0,0,10.147339484638527,0.0,1.0
1623778332.46875,0,0,6.22835420663012,0.0,1.0
1623778332.9375,0,0,0.0,0.0,1.0
1623778333.40625,0,0,8.754979338311642,0.0,1.0
1623778333.875,0,0,5.936558912504694,0.0,1.0
1623778334.34375,0,0,12.805015365684028,0.0,1.0
1623778334.8125,0,0,0.0,0.0,1.0
1623778335.28125,0,0,3.162825477778507,0.0,1.0
1623778335.75,0,0,3.0494483273543835,0.0,1.0
1623778336.21875,0,0,0.0,0.0,1.0
1623778336.6875,0,0,6.199361875964894,0.0,1.0
1623778337.15625,0,0,-2.096609402830026,0.0,1.0
1623778337.625,0,0,0.0,0.0,1.0
1623778338.09375,0,0,4.433017425206677,0.0,1.0
1623778338.5625,0,0,16.979891390466005,0.0,1.0
1623778339.03125,0,0,0.0,0.0,1.0
1623778339.5,0,0,6.409941768616155,0.0,1.0
1623778339.96875,0,0,0.0,0.0,1.0
1623778340.4375,0,0,-0.9919911355696592,0.0,1.0
1623778340.90625,0,0,10.56145204123509,0.0,1.0
1623778341.375,0,0,1.556505659599565,0.0,1.0
1623778341.84375,0,0,26.488152490599074,0.0,1.0
1623778342.3125,0,0,9.400781255497408,0.0,1.0
1623778342.78125,0,0,3.9420219142307213,0.0,1.0
1623778343.25,0,0,9.090274969922168,0.0,1.0
1623778343.71875,0,0,14.982578738162017,0.0,1.0
1623778344.1875,0,0,3.0063575040859827,0.0,1.0
1623778344.65625,0,0,9.053610949659337,0.0,1.0
1623778345.125,0,0,6.253799194608328,0.0,1.0
1623778345.59375,0,0,19.144759805828844,0.0,1.0
1623778346.0625,0,0,6.277255801651221,0.0,1.0
1623778346.53125,0,0,0.0,0.0,1.0
1623778347.0,0,0,0.0,0.0,1.0
1623778347.46875,0,0,-3.3423393714810388,0.0,1.0
1623778347.9375,0,0,24.46194914301214,0.0,1.0
1623778348.40625,0,0,7.198200251025349,0.0,1.0
1623778348.875,0,0,8.983659028863006,0.0,1.0
1623778349.34375,0,0,0.48869932877758376,0.0,1.0
1623778349.8125,0,0,9.385137856927917,0.0,1.0
1623778350.28125,0,0,0.0,0.0,1.0
1623778350.75,0,0,10.683669016693035,0.0,1.0
1623778351.21875,0,0,0.0,0.0,1.0
1623778351.6875,0,0,11.917491754575298,0.0,1.0
1623778352.15625,0,0,7.8956311987586645,0.0,1.0
1623778352.625,0,0,0.0,0.0,1.0
1623778353.09375,0,0,8.406413251761856,0.0,1.0
1623778353.5625,0,0,8.191679334270054,0.0,1.0
1623778354.03125,0,0,-0.02714502330889809,0.0,1.0
1623778354.5,0,0,10.72295219200669,0.0,1.0
1623778354.96875,0,0,4.051744730073213,0.0,1.0
1623778355.4375,0,0,13.490674518728907,0.0,1.0
1623778355.90625,0,0,9.782054002983632,0.0,1.0
1623778356.375,0,0,3.7264053136593023,0.0,1.0
1623778356.84375,0,0,8.296513560639555,0.0,1.0
1623778357.3125,0,0,0.8184396706757879,0.0,1.0
1623778357.78125,0,0,11.418839824639669,0.0,1.0
1623778358.25,0,0,0.0,0.0,1.0
1623778358.71875,0,0,9.931813766874788,0.0,1.0
1623778359.1875,0,0,23.572702475580197,0.0,1.0
1623778359.65625,0,0,0.0,0.0,1.0
1623778360.125,0,0,7.583368218481562,0.0,1.0
1623778360.59375,0,0,7.644798783535461,0.0,1.0
1623778361.0625,0,0,0.0,0.0,1.0
1623778361.53125,0,0,20.99482891000502,0.0,1.0
1623778362.0,0,0,9.358707096409876,0.0,1.0
1623778362.46875,0,0,0.0,0.0,1.0
1623778362.9375,0,0,5.9441356864019195,0.0,1.0
1623778363.40625,0,0,12.342343903151386,0.0,1.0
1623778363.875,0,0,0.0,0.0,1.0
1623778364.34375,0,0,8.958866036050036,0.0,1.0
1623778364.8125,0,0,0.0,0.0,1.0
1623778365.28125,0,0,22.71149534827379,0.0,1.0
1623778365.75,0,0,0.0,0.0,1.0
1623778366.21875,0,0,4.645809873583925,0.0,1.0
1623778366.6875,0,0,5.596548662989372,0.0,1.0
1623778367.15625,0,0,15.720801132518991,0.0,1.0
1623778367.625,0,0,8.86630510160492,0.0,1.0
1623778368.09375,0,0,8.668204871390678,0.0,1.0
1623778368.5625,0,0,0.0,0.0,1.0
1623778369.03125,0,0,16.329147028524304,0.0,1.0
1623778369.5,0,0,0.0,0.0,1.0
1623778369.96875,0,0,10.887078629742996,0.0,1.0
1623778370.4375,0,0,0.0,0.0,1.0
1623778370.90625,0,0,23.47674578355401,0.0,1.0
1623778371.375,0,0,4.358416116691705,0.0,1.0
1623778371.84375,0,0,6.147967548393517,0.0,1.0
1623778372.3125,0,0,6.647150091584025,0.0,1.0
1623778372.78125,0,0,10.730722512154543,0.0,1.0
1623778373.25,0,0,7.879470023521349,0.0,1.0
1623778373.71875,0,0,11.037119508101037,0.0,1.0
1623778374.1875,0,0,0.0,0.0,1.0
1623778374.65625,0,0,23.544203462349298,0.0,1.0
1623778375.125,0,0,0.0,0.0,1.0
1623778375.59375,0,0,7.363034151989311,0.0,1.0
1623778376.0625,0,0,0.0,0.0,1.0
1623778376.53125,0,0,20.23095527033252,0.0,1.0
1623778377.0,0,0,2.2020014224820152,0.0,1.0
1623778377.46875,0,0,2.11189418666895,0.0,1.0
1623778377.9375,0,0,9.531643453574429,0.0,1.0
1623778378.40625,0,0,14.675520033582023,0.0,1.0
1623778378.875,0,0,0.0,0.0,1.0
1623778379.34375,0,0,6.362579079428768,0.0,1.0
1623778379.8125,0,0,4.798849528449758,0.0,1.0
1623778380.28125,0,0,26.293368903338298,0.0,1.0
1623778380.75,0,0,0.0,0.0,1.0
1623778381.21875,0,0,5.208864621921776,0.0,1.0
1623778381.6875,0,0,0.0,0.0,1.0
1623778382.15625,0,0,8.508811939227563,0.0,1.0
1623778382.625,0,0,11.717216360790921,0.0,1.0
1623778383.09375,0,0,0.0,0.0,1.0
1623778383.5625,0,0,4.6350249197373605,0.0,1.0
1623778384.03125,0,0,7.224747094576502,0.0,1.0
1623778384.5,0,0,7.577913635624869,0.0,1.0
1623778384.96875,0,0,0.0,0.0,1.0
1623778385.4375,0,0,6.145991570405639,0.0,1.0
1623778385.90625,0,0,8.819558793067422,0.0,1.0
1623778386.375,0,0,0.0,0.0,1.0
1623778386.84375,0,0,9.024123389110734,0.0,1.0
1623778387.3125,0,0,0.0,0.0,1.0
1623778387.78125,0,0,7.132449354915048,0.0,1.0
1623778388.25,0,0,7.000355490187975,0.0,1.0
1623778388.71875,0,0,3.755764722943653,0.0,1.0
1623778389.1875,0,0,8.410270635928711,0.0,1.0
1623778389.65625,0,0,5.748891258102396,0.0,1.0
1623778390.125,0,0,9.963214610775132,0.0,1.0
1623778390.59375,0,0,0.0,0.0,1.0
1623778391.0625,0,0,7.7332996945980454,0.0,1.0
1623778391.53125,0,0,9.245691452899683,0.0,1.0
1623778392.0,0,0,6.408735550257192,0.0,1.0
1623778392.46875,0,0,8.788125695345915,0.0,1.0
1623778392.9375,0,0,0.0,0.0,1.0
1623778393.40625,0,0,9.749720575511585,0.0,1.0
1623778393.875,0,0,9.667539059206002,0.0,1.0
1623778394.34375,0,0,0.0,0.0,1.0
1623778394.8125,0,0,10.385613387569542,0.0,1.0
1623778395.28125,0,0,9.834055735862053,0.0,1.0
1623778395.75,0,0,0.0,0.0,1.0
1623778396.21875,0,0,5.7102999752930845,0.0,1.0
1623778396.6875,0,0,11.837259455158668,0.0,1.0
1623778397.15625,0,0,0.0,0.0,1.0
1623778397.625,0,0,5.604147107378335,0.0,1.0
1623778398.09375,0,0,15.910938413737583,0.0,1.0
1623778398.5625,0,0,4.469831732101927,0.0,1.0
1623778399.03125,0,0,4.580957758390314,0.0,1.0
1623778399.5,0,0,17.037543722836105,0.0,1.0
1623778399.96875,0,0,5.461242643024438,0.0,1.0
1623778400.4375,0,0,7.786988105845064,0.0,1.0
1623778400.90625,0,0,0.0,0.0,1.0
1623778401.375,0,0,31.22388181489163,0.0,1.0
1623778401.84375,0,0,5.400057917499281,0.0,1.0
1623778402.3125,0,0,-1.32072505685278,0.0,1.0
1623778402.78125,0,0,8.649280487005669,0.0,1.0
1623778403.25,0,0,32.40003848648295,0.0,1.0
1623778403.71875,0,0,-0.5805694309723385,0.0,1.0
1623778404.1875,0,0,9.746489970180702,0.0,1.0
1623778404.65625,0,0,8.35971468564829,0.0,1.0
1623778405.125,0,0,0.0,0.0,1.0
1623778405.59375,0,0,3.9649147630299235,0.0,1.0
1623778406.0625,0,0,16.090422581008173,0.0,1.0
1623778406.53125,0,0,0.0,0.0,1.0
1623778407.0,0,0,-8.318958596491376,0.0,1.0
1623778407.46875,0,0,30.514955805969027,0.0,1.0
1623778407.9375,0,0,2.9388833436088007,0.0,1.0
1623778408.40625,0,0,0.4206883751717315,0.0,1.0
1623778408.875,0,0,-3.0062703319382975,0.0,1.0
1623778409.34375,0,0,23.091562169445552,0.0,1.0
1623778409.8125,0,0,5.071434267429824,0.0,1.0
1623778410.28125,0,0,3.0567529707455963,0.0,1.0
1623778410.75,0,0,0.0,0.0,1.0
1623778411.21875,0,0,29.017899220745104,0.0,1.0
1623778411.6875,0,0,3.614440173841455,0.0,1.0
1623778412.15625,0,0,-2.2252360787349224,0.0,1.0
1623778412.625,0,0,4.664502529078949,0.0,1.0
1623778413.09375,0,0,-2.1352093333776714,0.0,1.0
1623778413.5625,0,0,27.800273170419192,0.0,1.0
1623778414.03125,0,0,-0.5116414078911635,0.0,1.0
1623778414.5,0,0,6.897540128320603,0.0,1.0
1623778414.96875,0,0,0.0,0.0,1.0
1623778415.4375,0,0,28.24175441253489,0.0,1.0
1623778415.90625,0,0,-1.8513675426449376,0.0,1.0
1623778416.375,0,0,1.4487895025503243,0.0,1.0
1623778416.84375,0,0,10.195497211233874,0.0,1.0
1623778417.3125,0,0,22.443181326285785,0.0,1.0
1623778417.78125,0,0,0.0,0.0,1.0
1623778418.25,0,0,2.9415083134109925,0.0,1.0
1623778418.71875,0,0,5.434312148641643,0.0,1.0
1623778419.1875,0,0,0.0,0.0,1.0
1623778419.65625,0,0,35.80623349201974,0.0,1.0
1623778420.125,0,0,1.2525528505477883,0.0,1.0
1623778420.59375,0,0,0.5394638312845155,0.0,1.0
1623778421.0625,0,0,9.569358705626415,0.0,1.0
1623778421.53125,0,0,27.333080564109867,0.0,1.0
1623778422.0,0,0,0.0,0.0,1.0
1623778422.46875,0,0,2.4991585344079357,0.0,1.0
1623778422.9375,0,0,8.702870030961087,0.0,1.0
1623778423.40625,0,0,19.699431586986417,0.0,1.0
1623778423.875,0,0,0.0,0.0,1.0
1623778424.34375,0,0,12.517695598979142,0.0,1.0
1623778424.8125,0,0,7.877783032886,0.0,1.0
1623778425.28125,0,0,0.0,0.0,1.0
1623778425.75,0,0,21.72198566074171,0.0,1.0
1623778426.21875,0,0,-6.969120042966847,0.0,1.0
1623778426.6875,0,0,7.627028204034744,0.0,1.0
1623778427.15625,0,0,4.326155823940635,0.0,1.0
1623778427.625,0,0,23.420486273891367,0.0,1.0
1623778428.09375,0,0,0.0,0.0,1.0
1623778428.5625,0,0,2.5625492766999867,0.0,1.0
1623778429.03125,0,0,0.0,0.0,1.0
1623778429.5,0,0,47.50721382674123,0.0,1.0
1623778429.96875,0,0,0.0,0.0,1.0
1623778430.4375,0,0,0.0,0.0,1.0
1623778430.90625,0,0,0.0,0.0,1.0
1623778431.375,0,0,24.913775461645514,0.0,1.0
1623778431.84375,0,0,0.0,0.0,1.0
1623778432.3125,0,0,8.956600958072178,0.0,1.0
1623778432.78125,0,0,7.245143196245754,0.0,1.0
1623778433.25,0,0,0.0,0.0,1.0
1623778433.71875,0,0,35.652032442033615,0.0,1.0
1623778434.1875,0,0,0.0,0.0,1.0
1623778434.65625,0,0,0.0,0.0,1.0
1623778435.125,0,0,29.763498582886292,0.0,1.0
1623778435.59375,0,0,1.4473644452674406,0.0,1.0
1623778436.0625,0,0,0.610685162735145,0.0,1.0
1623778436.53125,0,0,9.550727691127964,0.0,1.0
1623778437.0,0,0,0.0,0.0,1.0
1623778437.46875,0,0,34.52999002120388,0.0,1.0
1623778437.9375,0,0,5.1581893824628295,0.0,1.0
1623778438.40625,0,0,0.0,0.0,1.0
1623778438.875,0,0,0.0,0.0,1.0
1623778439.34375,0,0,36.33285870088881,0.0,1.0
1623778439.8125,0,0,0.0,0.0,1.0
1623778440.28125,0,0,7.14762606820193,0.0,1.0
1623778440.75,0,0,-3.8055873418241584,0.0,1.0
1623778441.21875,0,0,0.0,0.0,1.0
1623778441.6875,0,0,121.42132645630818,0.0,1.0
1623778442.15625,0,0,56.43861070889039,0.0,1.0
1623778442.625,0,0,131.90831718401424,0.0,1.0
1623778443.09375,0,0,30.545650423821137,0.0,1.0
1623778443.5625,0,0,-9.049233656076648,0.0,1.0
1623778444.03125,0,0,13.4145590441633,0.0,1.0
1623778444.5,0,0,0.0,0.0,1.0
1623778444.96875,0,0,-4.467694173714033,0.0,1.0
1623778445.4375,0,0,0.0,0.0,1.0
1623778445.90625,0,0,77.58284803710433,0.0,1.0
1623778446.375,0,0,0.0,0.0,1.0
1623778446.84375,0,0,273.11228752884944,0.0,1.0
1623778447.3125,0,0,65.95255861888747,0.0,1.0
1623778447.78125,0,0,0.0,0.0,1.0
1623778448.25,0,0,28.692204159887122,0.0,1.0
1623778448.71875,0,0,13.555996052461916,0.0,1.0
1623778449.1875,0,0,2.339464974834074,0.0,1.0
1623778449.65625,0,0,0.0,0.0,1.0
1623778450.125,0,0,3.3048196791537197,0.0,1.0
1623778450.59375,0,0,4.077709839658049,0.0,1.0
1623778451.0625,0,0,11.30941369932347,0.0,1.0
1623778451.53125,0,0,0.0,0.0,1.0
1623778452.0,0,0,1.0996128665780582,0.0,1.0
1623778452.46875,0,0,13.752078333967212,0.0,1.0
1623778452.9375,0,0,-0.836547999299312,0.0,1.0
1623778453.40625,0,0,-0.48104701067941236,0.0,1.0
1623778453.875,0,0,2.129126538167004,0.0,1.0
1623778454.34375,0,0,6.455144071715476,0.0,1.0
1623778454.8125,0,0,7.031941565607957,0.0,1.0
1623778455.28125,0,0,2.881755171451751,0.0,1.0
1623778455.75,0,0,7.646043733415489,0.0,1.0
1623778456.21875,0,0,4.03403877078137,0.0,1.0
1623778456.6875,0,0,6.882813972581532,0.0,1.0
1623778457.15625,0,0,0.0,0.0,1.0
1623778457.625,0,0,10.18195619526531,0.0,1.0
1623778458.09375,0,0,7.624934133356531,0.0,1.0
1623778458.5625,0,0,8.286180140797986,0.0,1.0
1623778459.03125,0,0,11.307967285249582,0.0,1.0
1623778459.5,0,0,2.9671498937173015,0.0,1.0
1623778459.96875,0,0,10.693945430612233,0.0,1.0
1623778460.4375,0,0,0.0,0.0,1.0
1623778460.90625,0,0,9.715999462929457,0.0,1.0
1623778461.375,0,0,0.0,0.0,1.0
1623778461.84375,0,0,7.557286121413201,0.0,1.0
1623778462.3125,0,0,12.01706559795062,0.0,1.0
1623778462.78125,0,0,8.175031680174037,0.0,1.0
1623778463.25,0,0,10.674534451592777,0.0,1.0
1623778463.71875,0,0,0.0,0.0,1.0
1623778464.1875,0,0,12.614257135351028,0.0,1.0
1623778464.65625,0,0,0.0,0.0,1.0
1623778465.125,0,0,0.0,0.0,1.0
1623778465.59375,0,0,14.16594146704012,0.0,1.0
1623778466.0625,0,0,14.25208286331796,0.0,1.0
1623778466.53125,0,0,1.0711976027739794,0.0,1.0
1623778467.0,0,0,11.614447168376447,0.0,1.0
1623778467.46875,0,0,23.79645485309892,0.0,1.0
1623778467.9375,0,0,14.047167627913947,0.0,1.0
1623778468.40625,0,0,7.130177591490223,0.0,1.0
1623778468.875,0,0,6.361972593319216,0.0,1.0
1623778469.34375,0,0,3.876588355982758,0.0,1.0
1623778469.8125,0,0,0.0,0.0,1.0
1623778470.28125,0,0,65.52520119954004,0.0,1.0
1623778470.75,0,0,0.0,0.0,1.0
1623778471.21875,0,0,28.280688071746397,0.0,1.0
1623778471.6875,0,0,-15.378200855627105,0.0,1.0
1623778472.15625,0,0,86.67217831799798,0.0,1.0
1623778472.625,0,0,7.385522661202907,0.0,1.0
1623778473.09375,0,0,-5.628573265368784,0.0,1.0
1623778473.5625,0,0,62.36017161358249,0.0,1.0
1623778474.03125,0,0,0.7576853316759399,0.0,1.0
1623778474.5,0,0,9.187977209873187,0.0,1.0
1623778474.96875,0,0,0.0,0.0,1.0
1623778475.4375,0,0,49.60639378144292,0.0,1.0
1623778475.90625,0,0,10.212962864586126,0.0,1.0
1623778476.375,0,0,0.0,0.0,1.0
1623778476.84375,0,0,0.0,0.0,1.0
1623778477.3125,0,0,68.90379010362643,0.0,1.0
1623778477.78125,0,0,0.0,0.0,1.0
1623778478.25,0,0,6.747489860072205,0.0,1.0
1623778478.71875,0,0,10.239114387943106,0.0,1.0
1623778479.1875,0,0,0.0,0.0,1.0
1623778479.65625,0,0,26.349802201046778,0.0,1.0
1623778480.125,0,0,4.389145649830103,0.0,1.0
1623778480.59375,0,0,2.4012140161186712,0.0,1.0
1623778481.0625,0,0,0.0,0.0,1.0
1623778481.53125,0,0,34.22119047374922,0.0,1.0
1623778482.0,0,0,0.0,0.0,1.0
1623778482.46875,0,0,6.18909382101739,0.0,1.0
1623778482.9375,0,0,3.114964924913523,0.0,1.0
1623778483.40625,0,0,21.782292915331247,0.0,1.0
1623778483.875,0,0,7.294162739210894,0.0,1.0
1623778484.34375,0,0,6.642880894278817,0.0,1.0
1623778484.8125,0,0,4.915553418052554,0.0,1.0
1623778485.28125,0,0,25.274643064483378,0.0,1.0
1623778485.75,0,0,5.6914125243875375,0.0,1.0
1623778486.21875,0,0,1.2847134178971624,0.0,1.0
1623778486.6875,0,0,8.481035894703046,0.0,1.0
1623778487.15625,0,0,23.941676186026942,0.0,1.0
1623778487.625,0,0,1.8732611643881016,0.0,1.0
1623778488.09375,0,0,11.975828155769875,0.0,1.0
1623778488.5625,0,0,-2.97060940188411,0.0,1.0
1623778489.03125,0,0,14.634033608808586,0.0,1.0
1623778489.5,0,0,14.254430791687021,0.0,1.0
1623778489.96875,0,0,5.403736601923333,0.0,1.0
1623778490.4375,0,0,3.824776365881595,0.0,1.0
1623778490.90625,0,0,30.853211630543232,0.0,1.0
1623778491.375,0,0,6.342089025123918,0.0,1.0
1623778491.84375,0,0,-1.1836360488623447,0.0,1.0
1623778492.3125,0,0,6.469170367789282,0.0,1.0
1623778492.78125,0,0,15.027194034598306,0.0,1.0
1623778493.25,0,0,10.04615462565421,0.0,1.0
1623778493.71875,0,0,-2.112494108340476,0.0,1.0
1623778494.1875,0,0,11.582082577705549,0.0,1.0
1623778494.65625,0,0,0.0,0.0,1.0
1623778495.125,0,0,-5.859894761467294,0.0,1.0
1623778495.59375,0,0,15.969130373107506,0.0,1.0
1623778496.0625,0,0,0.0,0.0,1.0
1623778496.53125,0,0,-4.0468660739570215,0.0,1.0
1623778497.0,0,0,48.26214768506401,0.0,1.0
1623778497.46875,0,0,0.0,0.0,1.0
1623778497.9375,0,0,1.7478170292927313,0.0,1.0
1623778498.40625,0,0,3.672248444980886,0.0,1.0
1623778498.875,0,0,0.0,0.0,1.0
1623778499.34375,0,0,34.0611610375173,0.0,1.0
1623778499.8125,0,0,0.0,0.0,1.0
1623778500.28125,0,0,9.112506649476131,0.0,1.0
1623778500.75,0,0,-8.024998376566238,0.0,1.0
1623778501.21875,0,0,32.36569882426897,0.0,1.0
1623778501.6875,0,0,0.0,0.0,1.0
1623778502.15625,0,0,6.071874918641257,0.0,1.0
1623778502.625,0,0,0.0,0.0,1.0
1623778503.09375,0,0,44.502889164154446,0.0,1.0
1623778503.5625,0,0,9.311586890672917,0.0,1.0
1623778504.03125,0,0,-8.505906162454016,0.0,1.0
1623778504.5,0,0,10.76196124755859,0.0,1.0
1623778504.96875,0,0,-4.3480568018156855,0.0,1.0
1623778505.4375,0,0,27.951756389696108,0.0,1.0
1623778505.90625,0,0,-10.979985418112914,0.0,1.0
1623778506.375,0,0,11.98307868959268,0.0,1.0
1623778506.84375,0,0,0.0,0.0,1.0
1623778507.3125,0,0,48.985741000115745,0.0,1.0
1623778507.78125,0,0,0.0,0.0,1.0
1623778508.25,0,0,-1.063320774687367,0.0,1.0
1623778508.71875,0,0,9.218372187813213,0.0,1.0
1623778509.1875,0,0,-2.1193243678331024,0.0,1.0
1623778509.65625,0,0,40.50231433162062,0.0,1.0
1623778510.125,0,0,-10.92448421667136,0.0,1.0
1623778510.59375,0,0,3.367154242290909,0.0,1.0
1623778511.0625,0,0,0.0,0.0,1.0
1623778511.53125,0,0,0.0,0.0,1.0
1623778512.0,0,0,7.159497810848295,0.0,1.0
1623778512.46875,0,0,0.0,0.0,1.0
1623778512.9375,0,0,1.608152343791488,0.0,1.0
1623778513.40625,0,0,27.57349435290364,0.0,1.0
1623778513.875,0,0,0.0,0.0,1.0
1623778514.34375,0,0,0.0,0.0,1.0
1623778514.8125,0,0,-13.536167592966134,0.0,1.0
1623778515.28125,0,0,0.0,0.0,1.0
1623778515.75,0,0,131.48866951965837,0.0,1.0
1623778516.21875,0,0,0.0,0.0,1.0
1623778516.6875,0,0,263.79576542131264,0.0,1.0
1623778517.15625,0,0,133.33678896102796,0.0,1.0
1623778517.625,0,0,178.07173652165608,0.0,1.0
1623778518.09375,0,0,-31.915419228980994,0.0,1.0
1623778518.5625,0,0,604.9356217834275,0.0,1.0
1623778519.03125,0,0,0.0,0.0,1.0
1623778519.5,0,0,455.22643496026706,0.0,1.0
1623778519.96875,0,0,0.06793041326484275,0.0,1.0
1623778520.4375,0,0,343.3749163666335,0.0,1.0
1623778520.90625,0,0,-143.86613048808184,0.0,1.0
1623778521.375,0,0,357.50727880584515,0.0,1.0
1623778521.84375,0,0,0.0,0.0,1.0
1623778522.3125,0,0,0.0,0.0,1.0
1623778522.78125,0,0,65.37706921968054,0.0,1.0
1623778523.25,0,0,0.0,0.0,1.0
1623778523.71875,0,0,124.46485034398147,0.0,1.0
1623778524.1875,0,0,41.8009923772429,0.0,1.0
1623778524.65625,0,0,0.0,0.0,1.0
1623778525.125,0,0,60.21640100607041,0.0,1.0
1623778525.59375,0,0,16.94983601958057,0.0,1.0
1623778526.0625,0,0,51.30211527375008,0.0,1.0
1623778526.53125,0,0,-17.92142360841936,0.0,1.0
1623778527.0,0,0,-0.5327401921432545,0.0,1.0
1623778527.46875,0,0,23.480604526964303,0.0,1.0
1623778527.9375,0,0,8.974884720160807,0.0,1.0
1623778528.40625,0,0,0.0,0.0,1.0
1623778528.875,0,0,14.108598188419226,0.0,1.0
1623778529.34375,0,0,10.641755568919356,0.0,1.0
1623778529.8125,0,0,8.87916511657378,0.0,1.0
1623778530.28125,0,0,11.118234087079946,0.0,1.0
1623778530.75,0,0,14.956353158535006,0.0,1.0
1623778531.21875,0,0,0.0,0.0,1.0
1623778531.6875,0,0,7.734259745898188,0.0,1.0
1623778532.15625,0,0,13.248631186426957,0.0,1.0
1623778532.625,0,0,-2.0616170877340623,0.0,1.0
1623778533.09375,0,0,12.112340169518182,0.0,1.0
1623778533.5625,0,0,7.589944423977688,0.0,1.0
1623778534.03125,0,0,8.159339345579088,0.0,1.0
1623778534.5,0,0,6.744286819840814,0.0,1.0
1623778534.96875,0,0,0.0,0.0,1.0
1623778535.4375,0,0,9.659835056470387,0.0,1.0
1623778535.90625,0,0,8.00019946544471,0.0,1.0
1623778536.375,0,0,0.0,0.0,1.0
1623778536.84375,0,0,9.96451467562535,0.0,1.0
1623778537.3125,0,0,-8.198082461096876,0.0,1.0
1623778537.78125,0,0,13.603827310033616,0.0,1.0
1623778538.25,0,0,9.449475845805287,0.0,1.0
1623778538.71875,0,0,3.90352005400964,0.0,1.0
1623778539.1875,0,0,8.259140599486123,0.0,1.0
1623778539.65625,0,0,10.901735116606272,0.0,1.0
1623778540.125,0,0,9.745312291718392,0.0,1.0
1623778540.59375,0,0,8.48694511786299,0.0,1.0
1623778541.0625,0,0,6.076242047379759,0.0,1.0
1623778541.53125,0,0,16.426463431325054,0.0,1.0
1623778542.0,0,0,0.0,0.0,1.0
1623778542.46875,0,0,8.344012456565235,0.0,1.0
1623778542.9375,0,0,9.05465891320493,0.0,1.0
1623778543.40625,0,0,0.0,0.0,1.0
1623778543.875,0,0,23.33891465951647,0.0,1.0
1623778544.34375,0,0,0.0,0.0,1.0
1623778544.8125,0,0,10.591336482218871,0.0,1.0
1623778545.28125,0,0,0.0,0.0,1.0
1623778545.75,0,0,11.77873388764111,0.0,1.0
1623778546.21875,0,0,8.9316288018692,0.0,1.0
1623778546.6875,0,0,7.07381600246908,0.0,1.0
1623778547.15625,0,0,10.909017729817528,0.0,1.0
1623778547.625,0,0,1.7388953067499127,0.0,1.0
1623778548.09375,0,0,9.706474251095397,0.0,1.0
1623778548.5625,0,0,11.488689162329534,0.0,1.0
1623778549.03125,0,0,0.0,0.0,1.0
1623778549.5,0,0,10.881711788189135,0.0,1.0
1623778549.96875,0,0,0.0,0.0,1.0
1623778550.4375,0,0,11.0781522204157,0.0,1.0
1623778550.90625,0,0,12.057530300356024,0.0,1.0
1623778551.375,0,0,10.275585024227029,0.0,1.0
1623778551.84375,0,0,9.83860306912398,0.0,1.0
1623778552.3125,0,0,6.684787730647772,0.0,1.0
1623778552.78125,0,0,10.674237594557693,0.0,1.0
1623778553.25,0,0,0.0,0.0,1.0
1623778553.71875,0,0,12.171396754186667,0.0,1.0
1623778554.1875,0,0,14.463269319124137,0.0,1.0
1623778554.65625,0,0,0.0,0.0,1.0
1623778555.125,0,0,13.399148195468992,0.0,1.0
1623778555.59375,0,0,12.079340024769238,0.0,1.0
1623778556.0625,0,0,11.47026143977064,0.0,1.0
1623778556.53125,0,0,0.0,0.0,1.0
1623778557.0,0,0,11.35696749872465,0.0,1.0
1623778557.46875,0,0,20.993910703524616,0.0,1.0
1623778557.9375,0,0,0.0,0.0,1.0
1623778558.40625,0,0,12.744983899173867,0.0,1.0
1623778558.875,0,0,8.955043665685096,0.0,1.0
1623778559.34375,0,0,14.266240730133669,0.0,1.0
1623778559.8125,0,0,0.0,0.0,1.0
1623778560.28125,0,0,10.880536051098375,0.0,1.0
1623778560.75,0,0,13.122314448365128,0.0,1.0
1623778561.21875,0,0,9.521745030035525,0.0,1.0
1623778561.6875,0,0,12.707168180239945,0.0,1.0
1623778562.15625,0,0,6.612626722060236,0.0,1.0
1623778562.625,0,0,13.088358181471463,0.0,1.0
1623778563.09375,0,0,0.0,0.0,1.0
1623778563.5625,0,0,0.0,0.0,1.0
1623778564.03125,0,0,11.43508067530694,0.0,1.0
1623778564.5,0,0,7.010459850080223,0.0,1.0
1623778564.96875,0,0,14.557497506357906,0.0,1.0
1623778565.4375,0,0,0.0,0.0,1.0
1623778565.90625,0,0,12.238218757960537,0.0,1.0
1623778566.375,0,0,13.418350913362195,0.0,1.0
1623778566.84375,0,0,11.10199461014206,0.0,1.0
1623778567.3125,0,0,12.375350221294037,0.0,1.0
1623778567.78125,0,0,0.0,0.0,1.0
1623778568.25,0,0,11.035881851788531,0.0,1.0
1623778568.71875,0,0,0.0,0.0,1.0
1623778569.1875,0,0,14.327799944440832,0.0,1.0
1623778569.65625,0,0,11.744873158011938,0.0,1.0
1623778570.125,0,0,0.0,0.0,1.0
1623778570.59375,0,0,16.10737689806248,0.0,1.0
1623778571.0625,0,0,0.0,0.0,1.0
1623778571.53125,0,0,10.14877511302809,0.0,1.0
1623778572.0,0,0,9.120244363441028,0.0,1.0
1623778572.46875,0,0,3.485950319189835,0.0,1.0
1623778572.9375,0,0,10.142068610454835,0.0,1.0
1623778573.40625,0,0,0.0,0.0,1.0
1623778573.875,0,0,10.251874655628777,0.0,1.0
1623778574.34375,0,0,5.11106498284059,0.0,1.0
1623778574.8125,0,0,-0.019139588042154605,0.0,1.0
1623778575.28125,0,0,11.424820409140759,0.0,1.0
1623778575.75,0,0,0.0,0.0,1.0
1623778576.21875,0,0,5.057104925497251,0.0,1.0
1623778576.6875,0,0,0.0,0.0,1.0
1623778577.15625,0,0,9.883597867314435,0.0,1.0
1623778577.625,0,0,2.670369645652798,0.0,1.0
1623778578.09375,0,0,15.360409703470424,0.0,1.0
1623778578.5625,0,0,0.0,0.0,1.0
1623778579.03125,0,0,7.943899878981131,0.0,1.0
1623778579.5,0,0,7.516765209676218,0.0,1.0
1623778579.96875,0,0,4.211551725760909,0.0,1.0
1623778580.4375,0,0,6.695409416214706,0.0,1.0
1623778580.90625,0,0,6.98190903555911,0.0,1.0
1623778581.375,0,0,7.296435302668445,0.0,1.0
1623778581.84375,0,0,1.3002568911639645,0.0,1.0
1623778582.3125,0,0,8.471878271362522,0.0,1.0
1623778582.78125,0,0,7.060053760594713,0.0,1.0
1623778583.25,0,0,3.4544008944992286,0.0,1.0
1623778583.71875,0,0,5.6689246594339915,0.0,1.0
1623778584.1875,0,0,5.19754082459177,0.0,1.0
1623778584.65625,0,0,7.234901501442251,0.0,1.0
1623778585.125,0,0,12.439539690415735,0.0,1.0
1623778585.59375,0,0,0.0,0.0,1.0
1623778586.0625,0,0,8.193033227846387,0.0,1.0
1623778586.53125,0,0,10.442083749879462,0.0,1.0
1623778587.0,0,0,4.183349204441231,0.0,1.0
1623778587.46875,0,0,5.097669662593196,0.0,1.0
1623778587.9375,0,0,6.278638146618813,0.0,1.0
1623778588.40625,0,0,8.294143691818276,0.0,1.0
1623778588.875,0,0,9.178380901235958,0.0,1.0
1623778589.34375,0,0,0.0,0.0,1.0
1623778589.8125,0,0,18.68840256229721,0.0,1.0
1623778590.28125,0,0,0.0,0.0,1.0
1623778590.75,0,0,14.559448319573743,0.0,1.0
1623778591.21875,0,0,4.33575861930205,0.0,1.0
1623778591.6875,0,0,6.41239338703791,0.0,1.0
1623778592.15625,0,0,4.949901958311601,0.0,1.0
1623778592.625,0,0,0.0,0.0,1.0
1623778593.09375,0,0,7.993071940547109,0.0,1.0
1623778593.5625,0,0,0.0,0.0,1.0
1623778594.03125,0,0,15.967188561769206,0.0,1.0
1623778594.5,0,0,0.0,0.0,1.0
1623778594.96875,0,0,7.72563979932718,0.0,1.0
1623778595.4375,0,0,13.121591362997806,0.0,1.0
1623778595.90625,0,0,0.0,0.0,1.0
1623778596.375,0,0,7.612776135246362,0.0,1.0
1623778596.84375,0,0,0.0,0.0,1.0
1623778597.3125,0,0,4.061471434623729,0.0,1.0
1623778597.78125,0,0,4.493216607935226,0.0,1.0
1623778598.25,0,0,0.0,0.0,1.0
1623778598.71875,0,0,8.381061435755841,0.0,1.0
1623778599.1875,0,0,0.0,0.0,1.0
1623778599.65625,0,0,17.168715487743096,0.0,1.0
1623778600.125,0,0,8.860089887384659,0.0,1.0
1623778600.59375,0,0,7.310094909913687,0.0,1.0
1623778601.0625,0,0,4.812448850156646,0.0,1.0
1623778601.53125,0,0,8.040733304545505,0.0,1.0
1623778602.0,0,0,6.373769653375114,0.0,1.0
1623778602.46875,0,0,0.0,0.0,1.0
1623778602.9375,0,0,6.559015570979438,0.0,1.0
1623778603.40625,0,0,0.7981490303488353,0.0,1.0
1623778603.875,0,0,7.5194880401195325,0.0,1.0
1623778604.34375,0,0,8.721677396873979,0.0,1.0
1623778604.8125,0,0,0.0,0.0,1.0
1623778605.28125,0,0,13.058206663418582,0.0,1.0
1623778605.75,0,0,7.180865303580772,0.0,1.0
1623778606.21875,0,0,4.336477356629092,0.0,1.0
1623778606.6875,0,0,6.076792686481119,0.0,1.0
1623778607.15625,0,0,0.0,0.0,1.0
1623778607.625,0,0,17.296364896855124,0.0,1.0
1623778608.09375,0,0,7.758113075141942,0.0,1.0
1623778608.5625,0,0,0.0,0.0,1.0
1623778609.03125,0,0,6.390851815599991,0.0,1.0
1623778609.5,0,0,17.002878738568423,0.0,1.0
1623778609.96875,0,0,3.8289869625528383,0.0,1.0
1623778610.4375,0,0,0.0,0.0,1.0
1623778610.90625,0,0,0.0,0.0,1.0
1623778611.375,0,0,14.634048607233122,0.0,1.0
1623778611.84375,0,0,2.8240984679332066,0.0,1.0
1623778612.3125,0,0,7.074575581973552,0.0,1.0
1623778612.78125,0,0,0.0,0.0,1.0
1623778613.25,0,0,14.195280014173147,0.0,1.0
1623778613.71875,0,0,3.5520127488235853,0.0,1.0
1623778614.1875,0,0,2.556759477390874,0.0,1.0
1623778614.65625,0,0,6.834322776108825,0.0,1.0
1623778615.125,0,0,0.0,0.0,1.0
1623778615.59375,0,0,8.855321057328025,0.0,1.0
1623778616.0625,0,0,7.468731920099444,0.0,1.0
1623778616.53125,0,0,0.0,0.0,1.0
1623778617.0,0,0,6.900149318522557,0.0,1.0
1623778617.46875,0,0,0.0,0.0,1.0
1623778617.9375,0,0,5.161722910055785,0.0,1.0
1623778618.40625,0,0,9.015073841894718,0.0,1.0
1623778618.875,0,0,0.0,0.0,1.0
1623778619.34375,0,0,4.759033524917456,0.0,1.0
1623778619.8125,0,0,0.0,0.0,1.0
1623778620.28125,0,0,0.0,0.0,1.0
1623778620.75,0,0,5.495074181245916,0.0,1.0
1623778621.21875,0,0,5.886937190579244,0.0,1.0
1623778621.6875,0,0,2.61091265698024,0.0,1.0
1623778622.15625,0,0,3.6727604857582405,0.0,1.0
1623778622.625,0,0,7.379310871096735,0.0,1.0
1623778623.09375,0,0,0.0,0.0,1.0
1623778623.5625,0,0,6.40371140780734,0.0,1.0
1623778624.03125,0,0,5.576944412482108,0.0,1.0
1623778624.5,0,0,2.4556038047453375,0.0,1.0
1623778624.96875,0,0,10.260392611190028,0.0,1.0
1623778625.4375,0,0,0.0,0.0,1.0
1623778625.90625,0,0,0.0,0.0,1.0
1623778626.375,0,0,6.393621128940156,0.0,1.0
1623778626.84375,0,0,0.0,0.0,1.0
1623778627.3125,0,0,9.83212434656649,0.0,1.0
1623778627.78125,0,0,7.831416800306109,0.0,1.0
1623778628.25,0,0,0.0,0.0,1.0
1623778628.71875,0,0,7.966898104740269,0.0,1.0
1623778629.1875,0,0,0.0,0.0,1.0
1623778629.65625,0,0,7.083053313237747,0.0,1.0
1623778630.125,0,0,7.819748865564544,0.0,1.0
1623778630.59375,0,0,4.121190890634423,0.0,1.0
1623778631.0625,0,0,18.256764668422306,0.0,1.0
1623778631.53125,0,0,0.0,0.0,1.0
1623778632.0,0,0,10.739658221678592,0.0,1.0
1623778632.46875,0,0,0.0,0.0,1.0
1623778632.9375,0,0,7.870412187467498,0.0,1.0
1623778633.40625,0,0,0.0,0.0,1.0
1623778633.875,0,0,0.0,0.0,1.0
1623778634.34375,0,0,0.0,0.0,1.0
1623778634.8125,0,0,9.104054879192901,0.0,1.0
1623778635.28125,0,0,6.896374702391219,0.0,1.0
1623778635.75,0,0,0.0,0.0,1.0
1623778636.21875,0,0,4.727499275935992,0.0,1.0
1623778636.6875,0,0,7.661866395959262,0.0,1.0
1623778637.15625,0,0,5.923508037225124,0.0,1.0
1623778637.625,0,0,7.600485153438577,0.0,1.0
1623778638.09375,0,0,0.0,0.0,1.0
1623778638.5625,0,0,7.64666135897279,0.0,1.0
1623778639.03125,0,0,7.607851440133163,0.0,1.0
1623778639.5,0,0,0.0,0.0,1.0
1623778639.96875,0,0,7.77410635551321,0.0,1.0
1623778640.4375,0,0,0.0,0.0,1.0
1623778640.90625,0,0,6.0689600699138335,0.0,1.0
1623778641.375,0,0,10.646306946826513,0.0,1.0
1623778641.84375,0,0,0.0,0.0,1.0
1623778642.3125,0,0,3.83244124594532,0.0,1.0
1623778642.78125,0,0,13.970402873356662,0.0,1.0
1623778643.25,0,0,0.0,0.0,1.0
1623778643.71875,0,0,14.085153643939075,0.0,1.0
1623778644.1875,0,0,-0.9465133348938187,0.0,1.0
1623778644.65625,0,0,8.94409607611335,0.0,1.0
1623778645.125,0,0,9.93285313727661,0.0,1.0
1623778645.59375,0,0,0.0,0.0,1.0
1623778646.0625,0,0,0.0,0.0,1.0
1623778646.53125,0,0,27.592281481289216,0.0,1.0
1623778647.0,0,0,0.0,0.0,1.0
1623778647.46875,0,0,6.706568015038562,0.0,1.0
1623778647.9375,0,0,11.436635876716915,0.0,1.0
1623778648.40625,0,0,2.2621911650696434,0.0,1.0
1623778648.875,0,0,3.2919900052845645,0.0,1.0
1623778649.34375,0,0,5.5466233936916804,0.0,1.0
1623778649.8125,0,0,3.5743025509574005,0.0,1.0
1623778650.28125,0,0,4.204504001440031,0.0,1.0
1623778650.75,0,0,7.024929466847736,0.0,1.0
1623778651.21875,0,0,0.0,0.0,1.0
1623778651.6875,0,0,5.7883322360611675,0.0,1.0
1623778652.15625,0,0,4.550408898546374,0.0,1.0
1623778652.625,0,0,0.0,0.0,1.0
1623778653.09375,0,0,5.66965828602313,0.0,1.0
1623778653.5625,0,0,0.0,0.0,1.0
1623778654.03125,0,0,17.406762063529815,0.0,1.0
1623778654.5,0,0,3.4328435784173004,0.0,1.0
1623778654.96875,0,0,0.2912278839154803,0.0,1.0
1623778655.4375,0,0,7.833301359475275,0.0,1.0
1623778655.90625,0,0,17.327785744332747,0.0,1.0
1623778656.375,0,0,0.0,0.0,1.0
1623778656.84375,0,0,6.7558684886574625,0.0,1.0
1623778657.3125,0,0,8.118694820612262,0.0,1.0
1623778657.78125,0,0,0.0,0.0,1.0
1623778658.25,0,0,18.12676192951702,0.0,1.0
1623778658.71875,0,0,4.49588250371645,0.0,1.0
1623778659.1875,0,0,6.85210278709209,0.0,1.0
1623778659.65625,0,0,7.404320764034364,0.0,1.0
1623778660.125,0,0,0.0,0.0,1.0
1623778660.59375,0,0,4.101646183278309,0.0,1.0
1623778661.0625,0,0,9.717657099180128,0.0,1.0
1623778661.53125,0,0,0.0,0.0,1.0
1623778662.0,0,0,18.298478852547536,0.0,1.0
1623778662.46875,0,0,5.115743691676315,0.0,1.0
1623778662.9375,0,0,0.0,0.0,1.0
1623778663.40625,0,0,7.485007805238701,0.0,1.0
1623778663.875,0,0,10.693964846680812,0.0,1.0
1623778664.34375,0,0,2.6976681949943724,0.0,1.0
1623778664.8125,0,0,6.025890040816057,0.0,1.0
1623778665.28125,0,0,9.422676788522619,0.0,1.0
1623778665.75,0,0,7.980812822694021,0.0,1.0
1623778666.21875,0,0,6.967510433328639,0.0,1.0
1623778666.6875,0,0,0.0,0.0,1.0
1623778667.15625,0,0,0.0,0.0,1.0
1623778667.625,0,0,14.510792040793678,0.0,1.0
1623778668.09375,0,0,-7.189136100834398,0.0,1.0
1623778668.5625,0,0,6.829640050839198,0.0,1.0
1623778669.03125,0,0,5.69671446211484,0.0,1.0
1623778669.5,0,0,0.9795983914065369,0.0,1.0
1623778669.96875,0,0,25.057283878819604,0.0,1.0
1623778670.4375,0,0,10.977964479226257,0.0,1.0
1623778670.90625,0,0,0.0,0.0,1.0
1623778671.375,0,0,5.760720258707506,0.0,1.0
1623778671.84375,0,0,26.517853882508646,0.0,1.0
1623778672.3125,0,0,-9.66224574628541,0.0,1.0
1623778672.78125,0,0,10.119181083442315,0.0,1.0
1623778673.25,0,0,5.813471635923676,0.0,1.0
1623778673.71875,0,0,0.0,0.0,1.0
1623778674.1875,0,0,25.50603682203666,0.0,1.0
1623778674.65625,0,0,13.907279652373406,0.0,1.0
1623778675.125,0,0,0.0,0.0,1.0
1623778675.59375,0,0,7.063669333109737,0.0,1.0
1623778676.0625,0,0,17.826066132313695,0.0,1.0
1623778676.53125,0,0,-0.48814741497909714,0.0,1.0
1623778677.0,0,0,10.415171525935547,0.0,1.0
1623778677.46875,0,0,0.0,0.0,1.0
1623778677.9375,0,0,9.333834504753106,0.0,1.0
1623778678.40625,0,0,8.205982182241241,0.0,1.0
1623778678.875,0,0,8.85099027344535,0.0,1.0
1623778679.34375,0,0,6.6011329898115605,0.0,1.0
1623778679.8125,0,0,5.919966788228783,0.0,1.0
1623778680.28125,0,0,3.3771205808791565,0.0,1.0
1623778680.75,0,0,20.350806094350077,0.0,1.0
1623778681.21875,0,0,7.5559154216505835,0.0,1.0
1623778681.6875,0,0,0.0,0.0,1.0
1623778682.15625,0,0,17.194789259721894,0.0,1.0
1623778682.625,0,0,8.458198265453971,0.0,1.0
1623778683.09375,0,0,0.0,0.0,1.0
1623778683.5625,0,0,4.539532834721833,0.0,1.0
1623778684.03125,0,0,12.105250639194498,0.0,1.0
1623778684.5,0,0,-0.08828538647704604,0.0,1.0
1623778684.96875,0,0,9.050234036217875,0.0,1.0
1623778685.4375,0,0,0.0,0.0,1.0
1623778685.90625,0,0,19.073195787474276,0.0,1.0
1623778686.375,0,0,-15.77797330768436,0.0,1.0
1623778686.84375,0,0,9.303240373543524,0.0,1.0
1623778687.3125,0,0,4.9763995924760795,0.0,1.0
1623778687.78125,0,0,0.0,0.0,1.0
1623778688.25,0,0,14.899875720096063,0.0,1.0
1623778688.71875,0,0,9.514794490455081,0.0,1.0
1623778689.1875,0,0,0.0,0.0,1.0
1623778689.65625,0,0,-1.2762492578337337,0.0,1.0
1623778690.125,0,0,0.0,0.0,1.0
1623778690.59375,0,0,87.61895761413852,0.0,1.0
1623778691.0625,0,0,0.0,0.0,1.0
1623778691.53125,0,0,56.28127539664952,0.0,1.0
1623778692.0,0,0,44.16545422374642,0.0,1.0
1623778692.46875,0,0,1.0908922567043169,0.0,1.0
1623778692.9375,0,0,50.00365903623361,0.0,1.0
1623778693.40625,0,0,0.0,0.0,1.0
1623778693.875,0,0,-1.8391711823093622,0.0,1.0
1623778694.34375,0,0,13.247313216195543,0.0,1.0
1623778694.8125,0,0,0.0,0.0,1.0
1623778695.28125,0,0,11.268602667766569,0.0,1.0
1623778695.75,0,0,9.259370057552717,0.0,1.0
1623778696.21875,0,0,1.0223802324969002,0.0,1.0
1623778696.6875,0,0,7.935316586015293,0.0,1.0
1623778697.15625,0,0,5.347488551071368,0.0,1.0
1623778697.625,0,0,12.99737019861063,0.0,1.0
1623778698.09375,0,0,0.0,0.0,1.0
1623778698.5625,0,0,0.0,0.0,1.0
1623778699.03125,0,0,4.754384195279485,0.0,1.0
1623778699.5,0,0,21.140900030873016,0.0,1.0
1623778699.96875,0,0,15.266988108708418,0.0,1.0
1623778700.4375,0,0,74.23329254933812,0.0,1.0
1623778700.90625,0,0,77.77834126561706,0.0,1.0
1623778701.375,0,0,0.0,0.0,1.0
1623778701.84375,0,0,95.50923859540791,0.0,1.0
1623778702.3125,0,0,0.0,0.0,1.0
1623778702.78125,0,0,3.31780679826639,0.0,1.0
1623778703.25,0,0,15.271943439595915,0.0,1.0
1623778703.71875,0,0,8.268583859166718,0.0,1.0
1623778704.1875,0,0,8.21399567707462,0.0,1.0
1623778704.65625,0,0,0.0,0.0,1.0
1623778705.125,0,0,13.638007609248582,0.0,1.0
1623778705.59375,0,0,12.711108940453526,0.0,1.0
1623778706.0625,0,0,0.0,0.0,1.0
1623778706.53125,0,0,9.529121253425576,0.0,1.0
1623778707.0,0,0,30.21474696209002,0.0,1.0
1623778707.46875,0,0,-0.01145398364164855,0.0,1.0
1623778707.9375,0,0,8.07253303204191,0.0,1.0
1623778708.40625,0,0,7.732941838785819,0.0,1.0
1623778708.875,0,0,8.03739021370415,0.0,1.0
1623778709.34375,0,0,6.7409268308144865,0.0,1.0
1623778709.8125,0,0,10.376273475796893,0.0,1.0
1623778710.28125,0,0,0.0,0.0,1.0
1623778710.75,0,0,9.376092283053058,0.0,1.0
1623778711.21875,0,0,25.92144081126794,0.0,1.0
1623778711.6875,0,0,0.0,0.0,1.0
1623778712.15625,0,0,8.928993215889747,0.0,1.0
1623778712.625,0,0,8.281780844259131,0.0,1.0
1623778713.09375,0,0,0.0,0.0,1.0
1623778713.5625,0,0,26.916486175398287,0.0,1.0
1623778714.03125,0,0,6.539229955097514,0.0,1.0
1623778714.5,0,0,3.133427104884244,0.0,1.0
1623778714.96875,0,0,5.513722474075851,0.0,1.0
1623778715.4375,0,0,9.800582574520867,0.0,1.0
1623778715.90625,0,0,1.1011331833853066,0.0,1.0
1623778716.375,0,0,8.701865829677606,0.0,1.0
1623778716.84375,0,0,10.131644560092544,0.0,1.0
1623778717.3125,0,0,10.374266650140132,0.0,1.0
1623778717.78125,0,0,6.455411174751436,0.0,1.0
1623778718.25,0,0,-0.13233221255013694,0.0,1.0
1623778718.71875,0,0,0.0,0.0,1.0
1623778719.1875,0,0,12.40120954229654,0.0,1.0
1623778719.65625,0,0,0.0,0.0,1.0
1623778720.125,0,0,6.914870740332008,0.0,1.0
1623778720.59375,0,0,8.782310031955681,0.0,1.0
1623778721.0625,0,0,0.0,0.0,1.0
1623778721.53125,0,0,18.37579661175064,0.0,1.0
1623778722.0,0,0,6.972786111870767,0.0,1.0
1623778722.46875,0,0,6.058927700594614,0.0,1.0
1623778722.9375,0,0,6.810754845301333,0.0,1.0
1623778723.40625,0,0,19.91992627097325,0.0,1.0
1623778723.875,0,0,0.0,0.0,1.0
1623778724.34375,0,0,7.972722785816025,0.0,1.0
1623778724.8125,0,0,0.0,0.0,1.0
1623778725.28125,0,0,6.065920898087495,0.0,1.0
1623778725.75,0,0,7.342655234090629,0.0,1.0
1623778726.21875,0,0,2.5395158324640583,0.0,1.0
1623778726.6875,0,0,7.340449216585792,0.0,1.0
1623778727.15625,0,0,0.0,0.0,1.0
1623778727.625,0,0,17.18997536561357,0.0,1.0
1623778728.09375,0,0,6.454478714718692,0.0,1.0
1623778728.5625,0,0,0.0,0.0,1.0
1623778729.03125,0,0,8.043138953570512,0.0,1.0
1623778729.5,0,0,5.886641022141711,0.0,1.0
1623778729.96875,0,0,0.0,0.0,1.0
1623778730.4375,0,0,8.888110048056067,0.0,1.0
1623778730.90625,0,0,4.806105539982575,0.0,1.0
1623778731.375,0,0,5.700834310762049,0.0,1.0
1623778731.84375,0,0,8.465588915736157,0.0,1.0
1623778732.3125,0,0,0.0,0.0,1.0
1623778732.78125,0,0,6.297302574655516,0.0,1.0
1623778733.25,0,0,11.57281952584619,0.0,1.0
1623778733.71875,0,0,0.0,0.0,1.0
1623778734.1875,0,0,3.7965044018252945,0.0,1.0
1623778734.65625,0,0,4.163300191274152,0.0,1.0
1623778735.125,0,0,13.415509626580988,0.0,1.0
1623778735.59375,0,0,5.955806831797096,0.0,1.0
1623778736.0625,0,0,0.0,0.0,1.0
1623778736.53125,0,0,9.751457606573721,0.0,1.0
1623778737.0,0,0,0.0,0.0,1.0
1623778737.46875,0,0,12.363688833604595,0.0,1.0
1623778737.9375,0,0,3.0974906981286585,0.0,1.0
1623778738.40625,0,0,6.141846881226246,0.0,1.0
1623778738.875,0,0,6.06809250715125,0.0,1.0
1623778739.34375,0,0,12.793041292998097,0.0,1.0
1623778739.8125,0,0,4.92914650242419,0.0,1.0
1623778740.28125,0,0,7.502645957985426,0.0,1.0
1623778740.75,0,0,0.0,0.0,1.0
1623778741.21875,0,0,6.248613629507683,0.0,1.0
1623778741.6875,0,0,17.517546716340167,0.0,1.0
1623778742.15625,0,0,0.0,0.0,1.0
1623778742.625,0,0,6.862464732015685,0.0,1.0
1623778743.09375,0,0,0.0,0.0,1.0
1623778743.5625,0,0,5.902404059127636,0.0,1.0
1623778744.03125,0,0,4.759603015049792,0.0,1.0
1623778744.5,0,0,2.7810086299342824,0.0,1.0
1623778744.96875,0,0,7.075876728103399,0.0,1.0
1623778745.4375,0,0,15.928173721531865,0.0,1.0
1623778745.90625,0,0,0.9012406469609336,0.0,1.0
1623778746.375,0,0,6.540574670873483,0.0,1.0
1623778746.84375,0,0,0.0,0.0,1.0
1623778747.3125,0,0,6.153680041942795,0.0,1.0
1623778747.78125,0,0,10.54858826642633,0.0,1.0
1623778748.25,0,0,0.0,0.0,1.0
1623778748.71875,0,0,-8.752484412649673,0.0,1.0
1623778749.1875,0,0,-14.587518210591723,0.0,1.0
1623778749.65625,0,0,101.56043473792192,0.0,1.0
1623778750.125,0,0,15.099492501982706,0.0,1.0
1623778750.59375,0,0,0.0,0.0,1.0
1623778751.0625,0,0,322.20059802629396,0.0,1.0
1623778751.53125,0,0,0.0,0.0,1.0
1623778752.0,0,0,0.0,0.0,1.0
1623778752.46875,0,0,38.10014656575604,0.0,1.0
1623778752.9375,0,0,2.0505834084731234,0.0,1.0
1623778753.40625,0,0,0.0,0.0,1.0
1623778753.875,0,0,7.762045318941417,0.0,1.0
1623778754.34375,0,0,8.78042021334537,0.0,1.0
1623778754.8125,0,0,0.0,0.0,1.0
1623778755.28125,0,0,6.990314297367726,0.0,1.0
1623778755.75,0,0,7.039369768973327,0.0,1.0
1623778756.21875,0,0,0.0,0.0,1.0
1623778756.6875,0,0,9.45140357144996,0.0,1.0
1623778757.15625,0,0,6.921638292544478,0.0,1.0
1623778757.625,0,0,0.0,0.0,1.0
1623778758.09375,0,0,2.0044094912765367,0.0,1.0
1623778758.5625,0,0,0.0,0.0,1.0
1623778759.03125,0,0,18.92762420838832,0.0,1.0
1623778759.5,0,0,26.042785994251503,0.0,1.0
1623778759.96875,0,0,0.0,0.0,1.0
1623778760.4375,0,0,119.68068064252259,0.0,1.0
1623778760.90625,0,0,0.0,0.0,1.0
1623778761.375,0,0,34.034463182923766,0.0,1.0
1623778761.84375,0,0,0.0,0.0,1.0
1623778762.3125,0,0,13.048224791608405,0.0,1.0
1623778762.78125,0,0,0.0,0.0,1.0
1623778763.25,0,0,14.706466216731059,0.0,1.0
1623778763.71875,0,0,14.648810440404873,0.0,1.0
1623778764.1875,0,0,-2.1276144397386756,0.0,1.0
1623778764.65625,0,0,20.390243276301824,0.0,1.0
1623778765.125,0,0,-5.576947788221851,0.0,1.0
1623778765.59375,0,0,9.483149849395717,0.0,1.0
1623778766.0625,0,0,24.341855488372357,0.0,1.0
1623778766.53125,0,0,-6.848462902410055,0.0,1.0
1623778767.0,0,0,6.274728587637292,0.0,1.0
1623778767.46875,0,0,8.823349933484971,0.0,1.0
1623778767.9375,0,0,0.0,0.0,1.0
1623778768.40625,0,0,0.8938522439027162,0.0,1.0
1623778768.875,0,0,7.941485100805902,0.0,1.0
1623778769.34375,0,0,0.0,0.0,1.0
1623778769.8125,0,0,8.051734871363955,0.0,1.0
1623778770.28125,0,0,0.0,0.0,1.0
1623778770.75,0,0,17.144998853097505,0.0,1.0
1623778771.21875,0,0,7.8318777533067685,0.0,1.0
1623778771.6875,0,0,0.0,0.0,1.0
1623778772.15625,0,0,18.553901783734354,0.0,1.0
1623778772.625,0,0,0.0,0.0,1.0
1623778773.09375,0,0,1.2601255151620725,0.0,1.0
1623778773.5625,0,0,8.712180033718631,0.0,1.0
1623778774.03125,0,0,17.948947847151423,0.0,1.0
1623778774.5,0,0,0.0,0.0,1.0
1623778774.96875,0,0,8.461335349011962,0.0,1.0
1623778775.4375,0,0,6.5377574648318495,0.0,1.0
1623778775.90625,0,0,16.95122419297707,0.0,1.0
1623778776.375,0,0,0.8732773911806957,0.0,1.0
1623778776.84375,0,0,9.483344547282531,0.0,1.0
1623778777.3125,0,0,8.99160049895985,0.0,1.0
1623778777.78125,0,0,7.57750236364643,0.0,1.0
1623778778.25,0,0,8.676607162852958,0.0,1.0
1623778778.71875,0,0,7.59154735957465,0.0,1.0
1623778779.1875,0,0,7.377825605816562,0.0,1.0
1623778779.65625,0,0,5.083312688922199,0.0,1.0
1623778780.125,0,0,8.830664762696443,0.0,1.0
1623778780.59375,0,0,0.0,0.0,1.0
1623778781.0625,0,0,11.422533202614954,0.0,1.0
1623778781.53125,0,0,0.0,0.0,1.0
1623778782.0,0,0,18.3149972496516,0.0,1.0
1623778782.46875,0,0,8.172530561884816,0.0,1.0
1623778782.9375,0,0,5.748941017958955,0.0,1.0
1623778783.40625,0,0,9.029337461793494,0.0,1.0
1623778783.875,0,0,0.0,0.0,1.0
1623778784.34375,0,0,9.328254846426113,0.0,1.0
1623778784.8125,0,0,10.2492522664556,0.0,1.0
1623778785.28125,0,0,7.455880056973822,0.0,1.0
1623778785.75,0,0,15.57876756521418,0.0,1.0
1623778786.21875,0,0,4.537466295193982,0.0,1.0
1623778786.6875,0,0,11.98998101250341,0.0,1.0
1623778787.15625,0,0,0.0,0.0,1.0
1623778787.625,0,0,16.34366167471123,0.0,1.0
1623778788.09375,0,0,0.0,0.0,1.0
1623778788.5625,0,0,11.67404048207283,0.0,1.0
1623778789.03125,0,0,12.700172235825152,0.0,1.0
1623778789.5,0,0,5.985809817257251,0.0,1.0
1623778789.96875,0,0,24.754897069290333,0.0,1.0
1623778790.4375,0,0,0.0,0.0,1.0
1623778790.90625,0,0,10.888071370094242,0.0,1.0
1623778791.375,0,0,0.0,0.0,1.0
1623778791.84375,0,0,25.520202015904747,0.0,1.0
1623778792.3125,0,0,0.0,0.0,1.0
1623778792.78125,0,0,10.062815609340962,0.0,1.0
1623778793.25,0,0,18.392267639093323,0.0,1.0
1623778793.71875,0,0,0.0,0.0,1.0
1623778794.1875,0,0,14.151478631247091,0.0,1.0
1623778794.65625,0,0,0.0,0.0,1.0
1623778795.125,0,0,5.572032257499236,0.0,1.0
1623778795.59375,0,0,9.060595729895741,0.0,1.0
1623778796.0625,0,0,0.0,0.0,1.0
1623778796.53125,0,0,12.9844432200367,0.0,1.0
1623778797.0,0,0,0.0,0.0,1.0
1623778797.46875,0,0,18.525517236491936,0.0,1.0
1623778797.9375,0,0,0.0,0.0,1.0
1623778798.40625,0,0,11.731285455907486,0.0,1.0
1623778798.875,0,0,9.649434844540187,0.0,1.0
1623778799.34375,0,0,6.704516757382451,0.0,1.0
1623778799.8125,0,0,5.07793793124811,0.0,1.0
1623778800.28125,0,0,4.342704554055143,0.0,1.0
1623778800.75,0,0,11.681839817152287,0.0,1.0
1623778801.21875,0,0,0.0,0.0,1.0
1623778801.6875,0,0,16.840332121606306,0.0,1.0
1623778802.15625,0,0,0.0,0.0,1.0
1623778802.625,0,0,4.1992565739189995,0.0,1.0
1623778803.09375,0,0,10.668789448352975,0.0,1.0
1623778803.5625,0,0,10.890175755048961,0.0,1.0
1623778804.03125,0,0,9.273051674192239,0.0,1.0
1623778804.5,0,0,12.484031000908026,0.0,1.0
1623778804.96875,0,0,0.0,0.0,1.0
1623778805.4375,0,0,0.0,0.0,1.0
1623778805.90625,0,0,19.1771922302824,0.0,1.0
1623778806.375,0,0,6.117064663933767,0.0,1.0
1623778806.84375,0,0,0.0,0.0,1.0
1623778807.3125,0,0,12.172932379822043,0.0,1.0
1623778807.78125,0,0,19.077366925566515,0.0,1.0
1623778808.25,0,0,0.0,0.0,1.0
1623778808.71875,0,0,18.444912175502413,0.0,1.0
1623778809.1875,0,0,-7.3623904976037196,0.0,1.0
1623778809.65625,0,0,17.35205196526797,0.0,1.0
1623778810.125,0,0,8.351913102680895,0.0,1.0
1623778810.59375,0,0,0.0,0.0,1.0
1623778811.0625,0,0,11.61271688850028,0.0,1.0
1623778811.53125,0,0,0.0,0.0,1.0
1623778812.0,0,0,10.616771429732992,0.0,1.0
1623778812.46875,0,0,10.008017118500213,0.0,1.0
1623778812.9375,0,0,0.0,0.0,1.0
1623778813.40625,0,0,7.262902896968583,0.0,1.0
1623778813.875,0,0,0.0,0.0,1.0
1623778814.34375,0,0,7.403116616356628,0.0,1.0
1623778814.8125,0,0,0.0,0.0,1.0
1623778815.28125,0,0,7.397522080220185,0.0,1.0
1623778815.75,0,0,8.455022637719573,0.0,1.0
1623778816.21875,0,0,5.460884051787977,0.0,1.0
1623778816.6875,0,0,8.80412132549683,0.0,1.0
1623778817.15625,0,0,5.272140695427258,0.0,1.0
1623778817.625,0,0,8.492676531211902,0.0,1.0
1623778818.09375,0,0,0.0,0.0,1.0
1623778818.5625,0,0,8.235108979103517,0.0,1.0
1623778819.03125,0,0,0.0,0.0,1.0
1623778819.5,0,0,8.711468582198824,0.0,1.0
1623778819.96875,0,0,6.361321134616045,0.0,1.0
1623778820.4375,0,0,3.0353537904666927,0.0,1.0
1623778820.90625,0,0,9.97639926355977,0.0,1.0
1623778821.375,0,0,10.62714672128055,0.0,1.0
1623778821.84375,0,0,7.839099147098962,0.0,1.0
1623778822.3125,0,0,6.170442726547114,0.0,1.0
1623778822.78125,0,0,3.5543454706738458,0.0,1.0
1623778823.25,0,0,31.79249006543902,0.0,1.0
1623778823.71875,0,0,0.0,0.0,1.0
1623778824.1875,0,0,3.6880449275541403,0.0,1.0
1623778824.65625,0,0,15.87084401848731,0.0,1.0
1623778825.125,0,0,3.9264590355047315,0.0,1.0
1623778825.59375,0,0,8.33988580680901,0.0,1.0
1623778826.0625,0,0,0.0,0.0,1.0
1623778826.53125,0,0,21.978828419030407,0.0,1.0
1623778827.0,0,0,0.0,0.0,1.0
1623778827.46875,0,0,0.0,0.0,1.0
1623778827.9375,0,0,7.272280367309055,0.0,1.0
1623778828.40625,0,0,4.838046992287885,0.0,1.0
1623778828.875,0,0,6.434067129753722,0.0,1.0
1623778829.34375,0,0,0.0,0.0,1.0
1623778829.8125,0,0,10.358795204557339,0.0,1.0
1623778830.28125,0,0,0.0,0.0,1.0
1623778830.75,0,0,9.194005523339285,0.0,1.0
1623778831.21875,0,0,8.704447724805714,0.0,1.0
1623778831.6875,0,0,0.0,0.0,1.0
1623778832.15625,0,0,3.724333493203333,0.0,1.0
1623778832.625,0,0,12.682354734614245,0.0,1.0
1623778833.09375,0,0,0.6952875717460829,0.0,1.0
1623778833.5625,0,0,6.710680397287989,0.0,1.0
1623778834.03125,0,0,0.0,0.0,1.0
1623778834.5,0,0,18.57583210717054,0.0,1.0
1623778834.96875,0,0,0.0,0.0,1.0
1623778835.4375,0,0,4.828904136210745,0.0,1.0
1623778835.90625,0,0,6.309429301448426,0.0,1.0
1623778836.375,0,0,3.098350432544706,0.0,1.0
1623778836.84375,0,0,4.398839183391917,0.0,1.0
1623778837.3125,0,0,0.0,0.0,1.0
1623778837.78125,0,0,7.206202281706432,0.0,1.0
1623778838.25,0,0,7.29154774861995,0.0,1.0
1623778838.71875,0,0,14.260381014083475,0.0,1.0
1623778839.1875,0,0,6.680716815242774,0.0,1.0
1623778839.65625,0,0,0.0,0.0,1.0
1623778840.125,0,0,7.2410243533566545,0.0,1.0
1623778840.59375,0,0,5.358509490458477,0.0,1.0
1623778841.0625,0,0,1.2471891980400713,0.0,1.0
1623778841.53125,0,0,6.862451459230034,0.0,1.0
1623778842.0,0,0,0.0,0.0,1.0
1623778842.46875,0,0,21.799555916995416,0.0,1.0
1623778842.9375,0,0,2.795493089320757,0.0,1.0
1623778843.40625,0,0,2.8507259513780308,0.0,1.0
1623778843.875,0,0,7.632582879236677,0.0,1.0
1623778844.34375,0,0,20.324286461530765,0.0,1.0
1623778844.8125,0,0,-4.61277409134315,0.0,1.0
1623778845.28125,0,0,7.051016494258857,0.0,1.0
1623778845.75,0,0,0.0,0.0,1.0
1623778846.21875,0,0,0.5319548958483109,0.0,1.0
1623778846.6875,0,0,16.738455684184164,0.0,1.0
1623778847.15625,0,0,-2.2848163636805796,0.0,1.0
1623778847.625,0,0,8.786701308762794,0.0,1.0
1623778848.09375,0,0,6.844155680018759,0.0,1.0
1623778848.5625,0,0,0.0,0.0,1.0
1623778849.03125,0,0,5.697452593241888,0.0,1.0
1623778849.5,0,0,7.067672741335883,0.0,1.0
1623778849.96875,0,0,0.0,0.0,1.0
1623778850.4375,0,0,15.007375303748054,0.0,1.0
1623778850.90625,0,0,-9.638746557491608,0.0,1.0
1623778851.375,0,0,7.095775159029572,0.0,1.0
1623778851.84375,0,0,5.679720000786448,0.0,1.0
1623778852.3125,0,0,4.37384744721654,0.0,1.0
1623778852.78125,0,0,14.620148344463077,0.0,1.0
1623778853.25,0,0,0.0,0.0,1.0
1623778853.71875,0,0,2.445294067058902,0.0,1.0
1623778854.1875,0,0,0.0,0.0,1.0
1623778854.65625,0,0,18.071577512989425,0.0,1.0
1623778855.125,0,0,4.296418399792133,0.0,1.0
1623778855.59375,0,0,7.231612518351369,0.0,1.0
1623778856.0625,0,0,2.1919552624346994,0.0,1.0
1623778856.53125,0,0,14.999597043865851,0.0,1.0
1623778857.0,0,0,0.0,0.0,1.0
1623778857.46875,0,0,0.0,0.0,1.0
1623778857.9375,0,0,9.459527282713085,0.0,1.0
1623778858.40625,0,0,6.606026786038173,0.0,1.0
1623778858.875,0,0,3.827586087612221,0.0,1.0
1623778859.34375,0,0,14.021861212316042,0.0,1.0
1623778859.8125,0,0,0.0,0.0,1.0
1623778860.28125,0,0,5.672195633939343,0.0,1.0
1623778860.75,0,0,27.247633136173814,0.0,1.0
1623778861.21875,0,0,-4.477936529610848,0.0,1.0
1623778861.6875,0,0,10.73988431548632,0.0,1.0
1623778862.15625,0,0,6.832537992572302,0.0,1.0
1623778862.625,0,0,1.9460887346385936,0.0,1.0
1623778863.09375,0,0,15.831461472736294,0.0,1.0
1623778863.5625,0,0,0.0,0.0,1.0
1623778864.03125,0,0,8.574610159842626,0.0,1.0
1623778864.5,0,0,8.282818476359235,0.0,1.0
1623778864.96875,0,0,5.404901047849197,0.0,1.0
1623778865.4375,0,0,15.43480151475096,0.0,1.0
1623778865.90625,0,0,-3.914593124288109,0.0,1.0
1623778866.375,0,0,-9.11519752639757,0.0,1.0
1623778866.84375,0,0,0.0,0.0,1.0
1623778867.3125,0,0,101.90340378161763,0.0,1.0
1623778867.78125,0,0,304.2518617733509,0.0,1.0
1623778868.25,0,0,6.055716537205084,0.0,1.0
1623778868.71875,0,0,0.0,0.0,1.0
1623778869.1875,0,0,-3.5613600699552728,0.0,1.0
1623778869.65625,0,0,14.991460793900194,0.0,1.0
1623778870.125,0,0,8.997042818625332,0.0,1.0
1623778870.59375,0,0,0.0,0.0,1.0
1623778871.0625,0,0,5.120369089666543,0.0,1.0
1623778871.53125,0,0,7.352970507168154,0.0,1.0
1623778872.0,0,0,5.927984126792226,0.0,1.0
1623778872.46875,0,0,4.8426420780578825,0.0,1.0
1623778872.9375,0,0,5.307463940797672,0.0,1.0
1623778873.40625,0,0,6.687645147217281,0.0,1.0
1623778873.875,0,0,0.0,0.0,1.0
1623778874.34375,0,0,-3.8098652129472264,0.0,1.0
1623778874.8125,0,0,-0.3467360542969264,0.0,1.0
1623778875.28125,0,0,80.96507002073166,0.0,1.0
1623778875.75,0,0,185.21324374916628,0.0,1.0
1623778876.21875,0,0,0.0,0.0,1.0
1623778876.6875,0,0,34.14203735655203,0.0,1.0
1623778877.15625,0,0,0.0,0.0,1.0
1623778877.625,0,0,17.09914007816172,0.0,1.0
1623778878.09375,0,0,40.02750301991146,0.0,1.0
1623778878.5625,0,0,-0.8669899168596968,0.0,1.0
1623778879.03125,0,0,-3.4747274657633263,0.0,1.0
1623778879.5,0,0,9.145668671613954,0.0,1.0
1623778879.96875,0,0,9.716530607447169,0.0,1.0
1623778880.4375,0,0,0.0,0.0,1.0
1623778880.90625,0,0,8.18388362550726,0.0,1.0
1623778881.375,0,0,4.599512771114571,0.0,1.0
1623778881.84375,0,0,0.0,0.0,1.0
1623778882.3125,0,0,0.0,0.0,1.0
1623778882.78125,0,0,-7.815470477368757,0.0,1.0
1623778883.25,0,0,11.233227655960949,0.0,1.0
1623778883.71875,0,0,26.125121340539586,0.0,1.0
1623778884.1875,0,0,0.0,0.0,1.0
1623778884.65625,0,0,8.999067138151302,0.0,1.0
1623778885.125,0,0,5.727404762645142,0.0,1.0
1623778885.59375,0,0,12.831566244223122,0.0,1.0
1623778886.0625,0,0,2.393933333817029,0.0,1.0
1623778886.53125,0,0,9.270110361364827,0.0,1.0
1623778887.0,0,0,0.0,0.0,1.0
1623778887.46875,0,0,3.7189995400329314,0.0,1.0
1623778887.9375,0,0,15.206494697950072,0.0,1.0
1623778888.40625,0,0,0.20487971769811783,0.0,1.0
1623778888.875,0,0,7.71510699961411,0.0,1.0
1623778889.34375,0,0,0.0,0.0,1.0
1623778889.8125,0,0,0.0,0.0,1.0
1623778890.28125,0,0,7.6100653080443825,0.0,1.0
1623778890.75,0,0,0.0,0.0,1.0
1623778891.21875,0,0,3.3351655282908523,0.0,1.0
1623778891.6875,0,0,20.918749852245707,0.0,1.0
1623778892.15625,0,0,-6.046932848883828,0.0,1.0
1623778892.625,0,0,10.61131355122329,0.0,1.0
1623778893.09375,0,0,0.0,0.0,1.0
1623778893.5625,0,0,17.598085781499467,0.0,1.0
1623778894.03125,0,0,2.6358855576591242,0.0,1.0
1623778894.5,0,0,8.674647582110033,0.0,1.0
1623778894.96875,0,0,0.0,0.0,1.0
1623778895.4375,0,0,21.727296164308594,0.0,1.0
1623778895.90625,0,0,0.0,0.0,1.0
1623778896.375,0,0,8.941877459271389,0.0,1.0
1623778896.84375,0,0,-2.3189950262990866,0.0,1.0
1623778897.3125,0,0,27.900452999980196,0.0,1.0
1623778897.78125,0,0,0.9052045342743026,0.0,1.0
1623778898.25,0,0,3.234794824007087,0.0,1.0
1623778898.71875,0,0,9.458498335804277,0.0,1.0
1623778899.1875,0,0,15.875434606484147,0.0,1.0
1623778899.65625,0,0,0.0,0.0,1.0
1623778900.125,0,0,8.963519492464194,0.0,1.0
1623778900.59375,0,0,7.5016798758761825,0.0,1.0
1623778901.0625,0,0,16.311783797982393,0.0,1.0
1623778901.53125,0,0,8.083214906099501,0.0,1.0
1623778902.0,0,0,4.8996577552210105,0.0,1.0
1623778902.46875,0,0,9.042075315934449,0.0,1.0
1623778902.9375,0,0,25.084452365640207,0.0,1.0
1623778903.40625,0,0,0.0,0.0,1.0
1623778903.875,0,0,10.612150705358715,0.0,1.0
1623778904.34375,0,0,8.35782324082118,0.0,1.0
1623778904.8125,0,0,18.639912562591363,0.0,1.0
1623778905.28125,0,0,0.0,0.0,1.0
1623778905.75,0,0,9.944190211750211,0.0,1.0
1623778906.21875,0,0,0.0,0.0,1.0
1623778906.6875,0,0,16.147860626369603,0.0,1.0
1623778907.15625,0,0,2.30393543043524,0.0,1.0
1623778907.625,0,0,5.998679206477084,0.0,1.0
1623778908.09375,0,0,6.774985233952878,0.0,1.0
1623778908.5625,0,0,0.0,0.0,1.0
1623778909.03125,0,0,21.750701477473736,0.0,1.0
1623778909.5,0,0,0.0,0.0,1.0
1623778909.96875,0,0,11.521686869316817,0.0,1.0
1623778910.4375,0,0,27.59898721240928,0.0,1.0
1623778910.90625,0,0,0.0,0.0,1.0
1623778911.375,0,0,8.630688971158536,0.0,1.0
1623778911.84375,0,0,6.367125294665736,0.0,1.0
1623778912.3125,0,0,2.810456740343931,0.0,1.0
1623778912.78125,0,0,22.224103167115405,0.0,1.0
1623778913.25,0,0,2.948797214828218,0.0,1.0
1623778913.71875,0,0,8.756385320128741,0.0,1.0
1623778914.1875,0,0,2.210390463097805,0.0,1.0
1623778914.65625,0,0,7.927772114079307,0.0,1.0
1623778915.125,0,0,1.8551434771837336,0.0,1.0
1623778915.59375,0,0,11.035662289709546,0.0,1.0
1623778916.0625,0,0,0.0,0.0,1.0
1623778916.53125,0,0,27.264429781088733,0.0,1.0
1623778917.0,0,0,7.951603075211198,0.0,1.0
1623778917.46875,0,0,4.281291207694171,0.0,1.0
1623778917.9375,0,0,31.060430184529075,0.0,1.0
1623778918.40625,0,0,0.0,0.0,1.0
1623778918.875,0,0,7.259349262321272,0.0,1.0
1623778919.34375,0,0,0.0,0.0,1.0
1623778919.8125,0,0,15.610056491542029,0.0,1.0
1623778920.28125,0,0,3.9269958307870185,0.0,1.0
1623778920.75,0,0,6.867606442923875,0.0,1.0
1623778921.21875,0,0,10.909651911838981,0.0,1.0
1623778921.6875,0,0,0.0,0.0,1.0
1623778922.15625,0,0,21.97462441314053,0.0,1.0
1623778922.625,0,0,0.0,0.0,1.0
1623778923.09375,0,0,10.02295323512722,0.0,1.0
1623778923.5625,0,0,0.0,0.0,1.0
1623778924.03125,0,0,8.177394237334363,0.0,1.0
1623778924.5,0,0,8.702006525602508,0.0,1.0
1623778924.96875,0,0,6.490083353882348,0.0,1.0
1623778925.4375,0,0,10.21999011791229,0.0,1.0
1623778925.90625,0,0,0.0,0.0,1.0
1623778926.375,0,0,8.617360415422258,0.0,1.0
1623778926.84375,0,0,8.472887876995891,0.0,1.0
1623778927.3125,0,0,6.273112303177815,0.0,1.0
1623778927.78125,0,0,10.30465383527948,0.0,1.0
1623778928.25,0,0,0.0,0.0,1.0
1623778928.71875,0,0,9.322383294020224,0.0,1.0
1623778929.1875,0,0,0.0,0.0,1.0
1623778929.65625,0,0,6.634803792902848,0.0,1.0
1623778930.125,0,0,11.028222896831533,0.0,1.0
1623778930.59375,0,0,7.839534913139574,0.0,1.0
1623778931.0625,0,0,8.997651998028163,0.0,1.0
1623778931.53125,0,0,0.0,0.0,1.0
1623778932.0,0,0,10.169927291227934,0.0,1.0
1623778932.46875,0,0,0.0,0.0,1.0
1623778932.9375,0,0,7.995512575336232,0.0,1.0
1623778933.40625,0,0,9.852347718033087,0.0,1.0
1623778933.875,0,0,6.614857132694744,0.0,1.0
1623778934.34375,0,0,9.082386468304394,0.0,1.0
1623778934.8125,0,0,6.036766470887611,0.0,1.0
1623778935.28125,0,0,12.254180124524355,0.0,1.0
1623778935.75,0,0,0.0,0.0,1.0
1623778936.21875,0,0,7.765275715348319,0.0,1.0
1623778936.6875,0,0,10.142760880295429,0.0,1.0
1623778937.15625,0,0,7.517438551920161,0.0,1.0
1623778937.625,0,0,12.557153159787939,0.0,1.0
1623778938.09375,0,0,8.753986071165246,0.0,1.0
1623778938.5625,0,0,0.0,0.0,1.0
1623778939.03125,0,0,12.432589706507292,0.0,2.0
1623778939.5,0,0,32.397248488531474,0.0,2.0
1623778939.96875,0,0,19.149518426089944,0.0,2.0
1623778940.4375,0,0,0.0,0.0,2.0
1623778940.90625,0,0,157.58322142904984,0.0,2.0
1623778941.375,0,0,0.0,0.0,2.0
1623778941.84375,0,0,0.0,0.0,2.0
1623778942.3125,0,0,61.3170643416632,0.0,2.0
1623778942.78125,0,0,33.898637372810555,0.0,2.0
1623778943.25,0,0,70.3435548780047,0.0,2.0
1623778943.71875,0,0,23.06146608493784,0.0,2.0
1623778944.1875,0,0,0.0,0.0,2.0
1623778944.65625,0,0,-5.016907813229935,0.0,2.0
1623778945.125,0,0,78.60314159651516,0.0,2.0
1623778945.59375,0,0,-30.7692172533177,0.0,2.0
1623778946.0625,0,0,73.12501598654507,0.0,2.0
1623778946.53125,0,0,17.45497268775488,0.0,2.0
1623778947.0,0,0,-0.8968439105299411,0.0,2.0
1623778947.46875,0,0,6.823543268716022,0.0,2.0
1623778947.9375,0,0,9.257960951524394,0.0,2.0
1623778948.40625,0,0,0.0,0.0,2.0
1623778948.875,0,0,4.5492502218544155,0.0,2.0
1623778949.34375,0,0,11.749189759955318,0.0,2.0
1623778949.8125,0,0,0.0,0.0,2.0
1623778950.28125,0,0,6.8586386777996715,0.0,2.0
1623778950.75,0,0,0.0,0.0,2.0
1623778951.21875,0,0,272.6472523135266,0.0,2.0
1623778951.6875,0,0,-0.6063459349680765,0.0,2.0
1623778952.15625,0,0,31.847800320174837,0.0,2.0
1623778952.625,0,0,204.53393485394494,0.0,2.0
1623778953.09375,0,0,-35.22633164895844,0.0,2.0
1623778953.5625,0,0,70.97454651431522,0.0,2.0
1623778954.03125,0,0,72.46440435594322,0.0,2.0
1623778954.5,0,0,-8.461419651235671,0.0,2.0
1623778954.96875,0,0,-0.482017905037786,0.0,2.0
1623778955.4375,0,0,21.616156044203084,0.0,2.0
1623778955.90625,0,0,7.138646583598462,0.0,2.0
1623778956.375,0,0,4.983351358102036,0.0,2.0
1623778956.84375,0,0,-0.8833422406241037,0.0,2.0
1623778957.3125,0,0,11.457614358592048,0.0,2.0
1623778957.78125,0,0,13.17710394067864,0.0,2.0
1623778958.25,0,0,9.57481246970237,0.0,2.0
1623778958.71875,0,0,11.764100366949947,0.0,2.0
1623778959.1875,0,0,11.342995317287384,0.0,2.0
1623778959.65625,0,0,-0.6696509913434765,0.0,2.0
1623778960.125,0,0,12.182307578699763,0.0,2.0
1623778960.59375,0,0,10.396614188663225,0.0,2.0
1623778961.0625,0,0,3.4659020125709783,0.0,2.0
1623778961.53125,0,0,6.104710880674022,0.0,2.0
1623778962.0,0,0,15.34630667422292,0.0,2.0
1623778962.46875,0,0,8.571596169360998,0.0,2.0
1623778962.9375,0,0,0.0,0.0,2.0
1623778963.40625,0,0,12.936395023421108,0.0,2.0
1623778963.875,0,0,7.744863906978357,0.0,2.0
1623778964.34375,0,0,0.0,0.0,2.0
1623778964.8125,0,0,9.258716856327698,0.0,2.0
1623778965.28125,0,0,0.0,0.0,2.0
1623778965.75,0,0,7.1272005749572935,0.0,2.0
1623778966.21875,0,0,6.628208235797995,0.0,2.0
1623778966.6875,0,0,5.179950253860644,0.0,2.0
1623778967.15625,0,0,0.0,0.0,2.0
1623778967.625,0,0,6.778972688766545,0.0,2.0
1623778968.09375,0,0,5.0598918297924,0.0,2.0
1623778968.5625,0,0,5.232685219583669,0.0,2.0
1623778969.03125,0,0,0.0,0.0,2.0
1623778969.5,0,0,5.363540655781197,0.0,2.0
1623778969.96875,0,0,0.0,0.0,2.0
1623778970.4375,0,0,6.236026501804817,0.0,2.0
1623778970.90625,0,0,0.0,0.0,2.0
1623778971.375,0,0,13.079839185409291,0.0,2.0
1623778971.84375,0,0,6.099524311401538,0.0,2.0
1623778972.3125,0,0,5.662151564545351,0.0,2.0
1623778972.78125,0,0,9.772185939308713,0.0,2.0
1623778973.25,0,0,0.0,0.0,2.0
1623778973.71875,0,0,14.115975644547945,0.0,2.0
1623778974.1875,0,0,12.206959508446989,0.0,2.0
1623778974.65625,0,0,0.0,0.0,2.0
1623778975.125,0,0,3.7214682642073753,0.0,2.0
1623778975.59375,0,0,0.0,0.0,2.0
1623778976.0625,0,0,46.476546959488694,0.0,2.0
1623778976.53125,0,0,0.0,0.0,2.0
1623778977.0,0,0,48.86872570382586,0.0,2.0
1623778977.46875,0,0,0.0,0.0,2.0
1623778977.9375,0,0,32.23826047642497,0.0,2.0
1623778978.40625,0,0,33.84244955474461,0.0,2.0
1623778978.875,0,0,35.3993979064979,0.0,2.0
1623778979.34375,0,0,12.242500598614406,0.0,2.0
1623778979.8125,0,0,1.0472501201782431,0.0,2.0
1623778980.28125,0,0,0.0,0.0,2.0
1623778980.75,0,0,8.187259689445149,0.0,2.0
1623778981.21875,0,0,0.0,0.0,2.0
1623778981.6875,0,0,5.093796193915607,0.0,2.0
1623778982.15625,0,0,0.0,0.0,2.0
1623778982.625,0,0,7.2134435626102675,0.0,2.0
1623778983.09375,0,0,0.0,0.0,2.0
1623778983.5625,0,0,2.029162968844924,0.0,2.0
1623778984.03125,0,0,0.0,0.0,2.0
1623778984.5,0,0,23.821018793952632,0.0,2.0
1623778984.96875,0,0,0.0,0.0,2.0
1623778985.4375,0,0,22.264276463168454,0.0,2.0
1623778985.90625,0,0,68.70643085045666,0.0,2.0
1623778986.375,0,0,18.491096399825103,0.0,2.0
1623778986.84375,0,0,13.356515136757078,0.0,2.0
1623778987.3125,0,0,68.31896530778445,0.0,2.0
1623778987.78125,0,0,0.742440868954442,0.0,2.0
1623778988.25,0,0,0.0,0.0,2.0
1623778988.71875,0,0,8.767491074932831,0.0,2.0
1623778989.1875,0,0,0.0,0.0,2.0
1623778989.65625,0,0,12.195652833589229,0.0,2.0
1623778990.125,0,0,0.0,0.0,2.0
1623778990.59375,0,0,8.054911810626182,0.0,2.0
1623778991.0625,0,0,0.0,0.0,2.0
1623778991.53125,0,0,7.207259521097597,0.0,2.0
1623778992.0,0,0,5.968444710347682,0.0,2.0
1623778992.46875,0,0,4.394286388381323,0.0,2.0
1623778992.9375,0,0,6.469165477439757,0.0,2.0
1623778993.40625,0,0,4.802605294656525,0.0,2.0
1623778993.875,0,0,4.054207591910255,0.0,2.0
1623778994.34375,0,0,4.74925481498541,0.0,2.0
1623778994.8125,0,0,6.444122851833224,0.0,2.0
1623778995.28125,0,0,3.659834408505745,0.0,2.0
1623778995.75,0,0,5.515054577815834,0.0,2.0
1623778996.21875,0,0,7.838742969294572,0.0,2.0
1623778996.6875,0,0,2.490048461758526,0.0,2.0
1623778997.15625,0,0,8.313175626972022,0.0,2.0
1623778997.625,0,0,8.88893938056267,0.0,2.0
1623778998.09375,0,0,0.0,0.0,2.0
1623778998.5625,0,0,8.59212844809687,0.0,2.0
1623778999.03125,0,0,0.0,0.0,2.0
1623778999.5,0,0,7.822334285281403,0.0,2.0
1623778999.96875,0,0,0.0,0.0,2.0
1623779000.4375,0,0,7.526039427241506,0.0,2.0
1623779000.90625,0,0,0.0,0.0,2.0
1623779001.375,0,0,3.8324899869439233,0.0,2.0
1623779001.84375,0,0,7.80541951154618,0.0,2.0
1623779002.3125,0,0,3.209120808804134,0.0,2.0
1623779002.78125,0,0,8.343763926985144,0.0,2.0
1623779003.25,0,0,4.6875121276204395,0.0,2.0
1623779003.71875,0,0,7.553087340960577,0.0,2.0
1623779004.1875,0,0,0.0,0.0,2.0
1623779004.65625,0,0,8.006667974393936,0.0,2.0
1623779005.125,0,0,8.22692865206755,0.0,2.0
1623779005.59375,0,0,5.28793507799934,0.0,2.0
1623779006.0625,0,0,8.648574890135318,0.0,2.0
1623779006.53125,0,0,6.743980841570137,0.0,2.0
1623779007.0,0,0,9.612483578168826,0.0,2.0
1623779007.46875,0,0,6.027422974269654,0.0,2.0
1623779007.9375,0,0,14.129111306452659,0.0,2.0
1623779008.40625,0,0,0.0,0.0,2.0
1623779008.875,0,0,6.822192681629481,0.0,2.0
1623779009.34375,0,0,8.267097377286202,0.0,2.0
1623779009.8125,0,0,3.339148132188927,0.0,2.0
1623779010.28125,0,0,8.409196250547103,0.0,2.0
1623779010.75,0,0,3.3178864148277785,0.0,2.0
1623779011.21875,0,0,10.563391805140684,0.0,2.0
1623779011.6875,0,0,6.825077800800548,0.0,2.0
1623779012.15625,0,0,2.9745234341612337,0.0,2.0
1623779012.625,0,0,11.839185235497093,0.0,2.0
1623779013.09375,0,0,8.969500549158496,0.0,2.0
1623779013.5625,0,0,0.0,0.0,2.0
1623779014.03125,0,0,0.0,0.0,2.0
1623779014.5,0,0,0.0,0.0,2.0
1623779014.96875,0,0,208.1805924753932,0.0,2.0
1623779015.4375,0,0,0.0,0.0,2.0
1623779015.90625,0,0,484.4667347455627,0.0,2.0
1623779016.375,0,0,-66.21123866741479,0.0,2.0
1623779016.84375,0,0,0.0,0.0,2.0
1623779017.3125,0,0,28.945581748574128,0.0,2.0
1623779017.78125,0,0,52.76912115678558,0.0,2.0
1623779018.25,0,0,7.625830423147579,0.0,2.0
1623779018.71875,0,0,5.569988178199634,0.0,2.0
1623779019.1875,0,0,3.3356433884508725,0.0,2.0
1623779019.65625,0,0,12.30200833318991,0.0,2.0
1623779020.125,0,0,8.904939705698363,0.0,2.0
1623779020.59375,0,0,5.195971599664037,0.0,2.0
1623779021.0625,0,0,9.354341096051213,0.0,2.0
1623779021.53125,0,0,0.0,0.0,2.0
1623779022.0,0,0,0.0,0.0,2.0
1623779022.46875,0,0,8.220663876015161,0.0,2.0
1623779022.9375,0,0,0.0,0.0,2.0
1623779023.40625,0,0,7.844443733369469,0.0,2.0
1623779023.875,0,0,6.567625383617649,0.0,2.0
1623779024.34375,0,0,0.0,0.0,2.0
1623779024.8125,0,0,31.48834448028921,0.0,2.0
1623779025.28125,0,0,-25.691299101651534,0.0,2.0
1623779025.75,0,0,51.87362563026553,0.0,2.0
1623779026.21875,0,0,12.541742480310129,0.0,2.0
1623779026.6875,0,0,32.586970709365055,0.0,2.0
1623779027.15625,0,0,0.0,0.0,2.0
1623779027.625,0,0,36.115015232199696,0.0,2.0
1623779028.09375,0,0,14.795561230792998,0.0,2.0
1623779028.5625,0,0,0.0,0.0,2.0
1623779029.03125,0,0,85.11381115972249,0.0,2.0
1623779029.5,0,0,12.829628075436814,0.0,2.0
1623779029.96875,0,0,0.0,0.0,2.0
1623779030.4375,0,0,13.282274900270146,0.0,2.0
1623779030.90625,0,0,10.93672791776098,0.0,2.0
1623779031.375,0,0,2.7423809201234493,0.0,2.0
1623779031.84375,0,0,12.495073545580455,0.0,2.0
1623779032.3125,0,0,11.86876224687958,0.0,2.0
1623779032.78125,0,0,8.661278362288545,0.0,2.0
1623779033.25,0,0,10.846480447798179,0.0,2.0
1623779033.71875,0,0,10.524239539406167,0.0,2.0
1623779034.1875,0,0,9.663660461159862,0.0,2.0
1623779034.65625,0,0,8.963632829548578,0.0,2.0
1623779035.125,0,0,10.627703841223079,0.0,2.0
1623779035.59375,0,0,7.538776071250736,0.0,2.0
1623779036.0625,0,0,9.680787280890378,0.0,2.0
1623779036.53125,0,0,5.822130183513187,0.0,2.0
1623779037.0,0,0,11.845156947660627,0.0,2.0
1623779037.46875,0,0,0.0,0.0,2.0
1623779037.9375,0,0,11.815529795645258,0.0,2.0
1623779038.40625,0,0,8.750267409111201,0.0,2.0
1623779038.875,0,0,24.68856400395253,0.0,2.0
1623779039.34375,0,0,101.33112518426404,0.0,2.0
1623779039.8125,0,0,74.25419097933755,0.0,2.0
1623779040.28125,0,0,12.479411718097301,0.0,2.0
1623779040.75,0,0,404.1559806493608,0.0,2.0
1623779041.21875,0,0,108.72383996143206,0.0,2.0
1623779041.6875,0,0,118.22326015527885,0.0,2.0
1623779042.15625,0,0,-7.089248099367028,0.0,2.0
1623779042.625,0,0,-14.404429381988006,0.0,2.0
1623779043.09375,0,0,15.091733896242044,0.0,2.0
1623779043.5625,0,0,12.954567534769394,0.0,2.0
1623779044.03125,0,0,4.5564887294145455,0.0,2.0
1623779044.5,0,0,3.5839302630789884,0.0,2.0
1623779044.96875,0,0,9.306496613868385,0.0,2.0
1623779045.4375,0,0,5.878947308673213,0.0,2.0
1623779045.90625,0,0,9.359165363969838,0.0,2.0
1623779046.375,0,0,8.700341036803541,0.0,2.0
1623779046.84375,0,0,12.465795946531227,0.0,2.0
1623779047.3125,0,0,0.0,0.0,2.0
1623779047.78125,0,0,7.780886219814767,0.0,2.0
1623779048.25,0,0,11.569076569606349,0.0,2.0
1623779048.71875,0,0,0.0,0.0,2.0
1623779049.1875,0,0,11.090472309085788,0.0,2.0
1623779049.65625,0,0,10.213247497767187,0.0,2.0
1623779050.125,0,0,17.39201470529355,0.0,2.0
1623779050.59375,0,0,0.0,0.0,2.0
1623779051.0625,0,0,-14.309900668609776,0.0,2.0
1623779051.53125,0,0,50.51852043371887,0.0,2.0
1623779052.0,0,0,0.0,0.0,2.0
1623779052.46875,0,0,50.479909472995374,0.0,2.0
1623779052.9375,0,0,0.0,0.0,2.0
1623779053.40625,0,0,3.803368101189951,0.0,2.0
1623779053.875,0,0,1.8086631754952394,0.0,2.0
1623779054.34375,0,0,22.55369607659946,0.0,2.0
1623779054.8125,0,0,47.47026889987473,0.0,2.0
1623779055.28125,0,0,-2.7000850992138363,0.0,2.0
1623779055.75,0,0,20.571641333530586,0.0,2.0
1623779056.21875,0,0,14.001468313622025,0.0,2.0
1623779056.6875,0,0,0.0,0.0,2.0
1623779057.15625,0,0,10.487279785151452,0.0,2.0
1623779057.625,0,0,15.699050114536968,0.0,2.0
1623779058.09375,0,0,8.984858635356535,0.0,2.0
1623779058.5625,0,0,12.134573667701813,0.0,2.0
1623779059.03125,0,0,0.0,0.0,2.0
1623779059.5,0,0,13.382532413678318,0.0,2.0
1623779059.96875,0,0,12.975224303846002,0.0,2.0
1623779060.4375,0,0,0.0,0.0,2.0
1623779060.90625,0,0,13.48083956450964,0.0,2.0
1623779061.375,0,0,0.0,0.0,2.0
1623779061.84375,0,0,13.81026358689881,0.0,2.0
1623779062.3125,0,0,0.0,0.0,2.0
1623779062.78125,0,0,9.511332349524226,0.0,2.0
1623779063.25,0,0,0.0,0.0,2.0
1623779063.71875,0,0,13.28064578991578,0.0,2.0
1623779064.1875,0,0,0.0,0.0,2.0
1623779064.65625,0,0,7.711047728909627,0.0,2.0
1623779065.125,0,0,12.380657754544234,0.0,2.0
1623779065.59375,0,0,7.832163721691695,0.0,2.0
1623779066.0625,0,0,12.94791547701028,0.0,2.0
1623779066.53125,0,0,6.846278413798545,0.0,2.0
1623779067.0,0,0,14.110278849667852,0.0,2.0
1623779067.46875,0,0,6.215991186364308,0.0,2.0
1623779067.9375,0,0,14.173369972998156,0.0,2.0
1623779068.40625,0,0,0.0,0.0,2.0
1623779068.875,0,0,14.920196784481574,0.0,2.0
1623779069.34375,0,0,0.0,0.0,2.0
1623779069.8125,0,0,8.41831866589655,0.0,2.0
1623779070.28125,0,0,15.037946276934827,0.0,2.0
1623779070.75,0,0,8.711771534048136,0.0,2.0
1623779071.21875,0,0,14.295727929686418,0.0,2.0
1623779071.6875,0,0,0.0,0.0,2.0
1623779072.15625,0,0,15.64626890473204,0.0,2.0
1623779072.625,0,0,0.0,0.0,2.0
1623779073.09375,0,0,16.674895558802614,0.0,2.0
1623779073.5625,0,0,16.655525742389074,0.0,2.0
1623779074.03125,0,0,9.353138644586963,0.0,2.0
1623779074.5,0,0,16.292958608236294,0.0,2.0
1623779074.96875,0,0,0.0,0.0,2.0
1623779075.4375,0,0,17.373243216622452,0.0,2.0
1623779075.90625,0,0,0.0,0.0,2.0
1623779076.375,0,0,17.0338410701149,0.0,2.0
1623779076.84375,0,0,18.672327736780467,0.0,2.0
1623779077.3125,0,0,10.318681576117081,0.0,2.0
1623779077.78125,0,0,17.623997283121003,0.0,2.0
1623779078.25,0,0,11.483574781708407,0.0,2.0
1623779078.71875,0,0,16.627634599968637,0.0,2.0
1623779079.1875,0,0,0.0,0.0,2.0
1623779079.65625,0,0,16.96857835177067,0.0,2.0
1623779080.125,0,0,0.0,0.0,2.0
1623779080.59375,0,0,17.590543423852665,0.0,2.0
1623779081.0625,0,0,17.422166462979717,0.0,2.0
1623779081.53125,0,0,8.988832263771734,0.0,2.0
1623779082.0,0,0,18.15222470944279,0.0,2.0
1623779082.46875,0,0,0.0,0.0,2.0
1623779082.9375,0,0,16.9749998339249,0.0,2.0
1623779083.40625,0,0,0.0,0.0,2.0
1623779083.875,0,0,10.657655510813868,0.0,2.0
1623779084.34375,0,0,18.679986730555513,0.0,2.0
1623779084.8125,0,0,8.966834242122456,0.0,2.0
1623779085.28125,0,0,19.301259174266036,0.0,2.0
1623779085.75,0,0,12.752369769647947,0.0,2.0
1623779086.21875,0,0,19.003264373360807,0.0,2.0
1623779086.6875,0,0,0.0,0.0,2.0
1623779087.15625,0,0,19.04852266882842,0.0,2.0
1623779087.625,0,0,0.0,0.0,2.0
1623779088.09375,0,0,18.774499017905057,0.0,2.0
1623779088.5625,0,0,16.327851268161904,0.0,2.0
1623779089.03125,0,0,7.638305079792477,0.0,2.0
1623779089.5,0,0,18.900645323001957,0.0,2.0
1623779089.96875,0,0,10.890324042099966,0.0,2.0
1623779090.4375,0,0,21.816289916591614,0.0,2.0
1623779090.90625,0,0,0.0,0.0,2.0
1623779091.375,0,0,28.212805491666085,0.0,2.0
1623779091.84375,0,0,16.115624673072883,0.0,2.0
1623779092.3125,0,0,0.0,0.0,2.0
1623779092.78125,0,0,32.6210240031237,0.0,2.0
1623779093.25,0,0,-2.5742306953708143,0.0,2.0
1623779093.71875,0,0,10.033220953130185,0.0,2.0
1623779094.1875,0,0,15.188662822624346,0.0,2.0
1623779094.65625,0,0,6.192272694403066,0.0,2.0
1623779095.125,0,0,14.161222678799765,0.0,2.0
1623779095.59375,0,0,15.940716839331602,0.0,2.0
1623779096.0625,0,0,0.0,0.0,2.0
1623779096.53125,0,0,16.65333674675102,0.0,2.0
1623779097.0,0,0,0.0,0.0,2.0
1623779097.46875,0,0,16.182135389953736,0.0,2.0
1623779097.9375,0,0,0.0,0.0,2.0
1623779098.40625,0,0,16.888083714342343,0.0,2.0
1623779098.875,0,0,0.0,0.0,2.0
1623779099.34375,0,0,18.52439340530325,0.0,2.0
1623779099.8125,0,0,71.3708071057093,0.0,2.0
1623779100.28125,0,0,0.0,0.0,2.0
1623779100.75,0,0,47.055991352360266,0.0,2.0
1623779101.21875,0,0,54.7603560987146,0.0,2.0
1623779101.6875,0,0,0.0,0.0,2.0
1623779102.15625,0,0,15.408795966241117,0.0,2.0
1623779102.625,0,0,15.683670733872296,0.0,2.0
1623779103.09375,0,0,9.112274004092233,0.0,2.0
1623779103.5625,0,0,13.905492056866377,0.0,2.0
1623779104.03125,0,0,0.0,0.0,2.0
1623779104.5,0,0,9.621090646419157,0.0,2.0
1623779104.96875,0,0,14.414674785908328,0.0,2.0
1623779105.4375,0,0,0.0,0.0,2.0
1623779105.90625,0,0,10.490982853108296,0.0,2.0
1623779106.375,0,0,13.216217097145961,0.0,2.0
1623779106.84375,0,0,0.0,0.0,2.0
1623779107.3125,0,0,7.832266273395627,0.0,2.0
1623779107.78125,0,0,13.334195433347803,0.0,2.0
1623779108.25,0,0,4.9821680038370415,0.0,2.0
1623779108.71875,0,0,13.95638537970945,0.0,2.0
1623779109.1875,0,0,0.0,0.0,2.0
1623779109.65625,0,0,3.72259690337486,0.0,2.0
1623779110.125,0,0,7.316693485378299,0.0,2.0
1623779110.59375,0,0,15.320087753819518,0.0,2.0
1623779111.0625,0,0,0.0,0.0,2.0
1623779111.53125,0,0,11.61110114249869,0.0,2.0
1623779112.0,0,0,12.931325931136337,0.0,2.0
1623779112.46875,0,0,0.0,0.0,2.0
1623779112.9375,0,0,12.552671491142554,0.0,2.0
1623779113.40625,0,0,14.533507540840304,0.0,2.0
1623779113.875,0,0,0.0,0.0,2.0
1623779114.34375,0,0,15.064031462013006,0.0,2.0
1623779114.8125,0,0,15.199733815523338,0.0,2.0
1623779115.28125,0,0,15.465955972674367,0.0,2.0
1623779115.75,0,0,0.0,0.0,2.0
1623779116.21875,0,0,17.738302732278527,0.0,2.0
1623779116.6875,0,0,11.517179957342673,0.0,2.0
1623779117.15625,0,0,11.771685752295062,0.0,2.0
1623779117.625,0,0,0.0,0.0,2.0
1623779118.09375,0,0,12.243146163144527,0.0,2.0
1623779118.5625,0,0,0.0,0.0,2.0
1623779119.03125,0,0,105.3699964776058,0.0,2.0
1623779119.5,0,0,0.0,0.0,2.0
1623779119.96875,0,0,63.840970600938235,0.0,2.0
1623779120.4375,0,0,111.53076276105159,0.0,2.0
1623779120.90625,0,0,101.04553660097886,0.0,2.0
1623779121.375,0,0,0.0,0.0,2.0
1623779121.84375,0,0,75.640121498389,0.0,2.0
1623779122.3125,0,0,-25.38228249849838,0.0,2.0
1623779122.78125,0,0,4.756294233700786,0.0,2.0
1623779123.25,0,0,17.594908565369312,0.0,2.0
1623779123.71875,0,0,0.0,0.0,2.0
1623779124.1875,0,0,27.349608579315102,0.0,2.0
1623779124.65625,0,0,0.0,0.0,2.0
1623779125.125,0,0,34.902803268438184,0.0,3.0
1623779125.59375,0,0,0.0,0.0,3.0
1623779126.0625,0,0,14.741192333314542,0.0,3.0
1623779126.53125,0,0,18.547570910821552,0.0,3.0
1623779127.0,0,0,0.0,0.0,3.0
1623779127.46875,0,0,0.0,0.0,3.0
1623779127.9375,0,0,99.69801747932404,0.0,3.0
1623779128.40625,0,0,-62.401230378316804,0.0,3.0
1623779128.875,0,0,82.17110985401337,0.0,3.0
1623779129.34375,0,0,227.36337204034058,0.0,3.0
1623779129.8125,0,0,176.16680084802843,0.0,3.0
1623779130.28125,0,0,0.0,0.0,3.0
1623779130.75,0,0,-28.91142556207524,0.0,3.0
1623779131.21875,0,0,40.2226639809628,0.0,3.0
1623779131.6875,0,0,0.37185884392859525,0.0,3.0
1623779132.15625,0,0,-5.923056930133877,0.0,3.0
1623779132.625,0,0,11.97681560943186,0.0,3.0
1623779133.09375,0,0,8.649515686578667,0.0,3.0
1623779133.5625,0,0,2.8922578044821683,0.0,3.0
1623779134.03125,0,0,8.488656318686333,0.0,3.0
1623779134.5,0,0,7.748225083279445,0.0,3.0
1623779134.96875,0,0,2.106530278934899,0.0,3.0
1623779135.4375,0,0,9.969535210057785,0.0,3.0
1623779135.90625,0,0,8.099532797330749,0.0,3.0
1623779136.375,0,0,0.0,0.0,3.0
1623779136.84375,0,0,18.39991724734113,0.0,3.0
1623779137.3125,0,0,0.0,0.0,3.0
1623779137.78125,0,0,8.82457162864754,0.0,3.0
1623779138.25,0,0,17.23373693135231,0.0,3.0
1623779138.71875,0,0,0.0,0.0,3.0
1623779139.1875,0,0,10.050015726556012,0.0,3.0
1623779139.65625,0,0,6.704219412311144,0.0,3.0
1623779140.125,0,0,-2.3997523710567736,0.0,3.0
1623779140.59375,0,0,21.992419531411976,0.0,3.0
1623779141.0625,0,0,0.0,0.0,3.0
1623779141.53125,0,0,0.0,0.0,3.0
1623779142.0,0,0,10.128596015686322,0.0,3.0
1623779142.46875,0,0,6.7627303111549955,0.0,3.0
1623779142.9375,0,0,4.233182182134011,0.0,3.0
1623779143.40625,0,0,9.41477074934079,0.0,3.0
1623779143.875,0,0,0.6309485049169354,0.0,3.0
1623779144.34375,0,0,5.91951498514954,0.0,3.0
1623779144.8125,0,0,3.2311016399811137,0.0,3.0
1623779145.28125,0,0,7.836450128886518,0.0,3.0
1623779145.75,0,0,0.0,0.0,3.0
1623779146.21875,0,0,20.32660992495094,0.0,3.0
1623779146.6875,0,0,0.0,0.0,3.0
1623779147.15625,0,0,3.3606221997010466,0.0,3.0
1623779147.625,0,0,9.105022133497878,0.0,3.0
1623779148.09375,0,0,0.0,0.0,3.0
1623779148.5625,0,0,15.55628922153976,0.0,3.0
1623779149.03125,0,0,5.169668881743781,0.0,3.0
1623779149.5,0,0,0.0,0.0,3.0
1623779149.96875,0,0,12.898229873460068,0.0,3.0
1623779150.4375,0,0,10.053394740256948,0.0,3.0
1623779150.90625,0,0,9.210181132463928,0.0,3.0
1623779151.375,0,0,0.0,0.0,3.0
1623779151.84375,0,0,7.456697651111714,0.0,3.0
1623779152.3125,0,0,14.097498111517853,0.0,3.0
1623779152.78125,0,0,7.734547231186782,0.0,3.0
1623779153.25,0,0,6.913261877695676,0.0,3.0
1623779153.71875,0,0,0.0,0.0,3.0
1623779154.1875,0,0,22.179334742442833,0.0,3.0
1623779154.65625,0,0,0.0,0.0,3.0
1623779155.125,0,0,0.0,0.0,3.0
1623779155.59375,0,0,6.90439531107542,0.0,3.0
1623779156.0625,0,0,13.821739879671345,0.0,3.0
1623779156.53125,0,0,1.5793638597376436,0.0,3.0
1623779157.0,0,0,8.987510650735025,0.0,3.0
1623779157.46875,0,0,7.699962470060735,0.0,3.0
1623779157.9375,0,0,8.100852542335211,0.0,3.0
1623779158.40625,0,0,7.106461813003617,0.0,3.0
1623779158.875,0,0,6.782405719526483,0.0,3.0
1623779159.34375,0,0,0.0,0.0,3.0
1623779159.8125,0,0,17.838183438582053,0.0,3.0
1623779160.28125,0,0,0.0,0.0,3.0
1623779160.75,0,0,8.870875631201354,0.0,3.0
1623779161.21875,0,0,9.638091546408049,0.0,3.0
1623779161.6875,0,0,21.234012642032674,0.0,3.0
1623779162.15625,0,0,5.428544270712024,0.0,3.0
1623779162.625,0,0,7.025003042166265,0.0,3.0
1623779163.09375,0,0,0.0,0.0,3.0
1623779163.5625,0,0,15.384716199649926,0.0,3.0
1623779164.03125,0,0,4.558839362142467,0.0,3.0
1623779164.5,0,0,13.323388592291293,0.0,3.0
1623779164.96875,0,0,0.0,0.0,3.0
1623779165.4375,0,0,16.75972385456073,0.0,3.0
1623779165.90625,0,0,0.0,0.0,3.0
1623779166.375,0,0,11.446178867336396,0.0,3.0
1623779166.84375,0,0,0.0,0.0,3.0
1623779167.3125,0,0,6.567383321733433,0.0,3.0
1623779167.78125,0,0,17.216258704774415,0.0,3.0
1623779168.25,0,0,0.0,0.0,3.0
1623779168.71875,0,0,8.81502237530946,0.0,3.0
1623779169.1875,0,0,0.0,0.0,3.0
1623779169.65625,0,0,13.625752722719387,0.0,3.0
1623779170.125,0,0,7.379281357469336,0.0,3.0
1623779170.59375,0,0,5.421832766244915,0.0,3.0
1623779171.0625,0,0,0.0,0.0,3.0
1623779171.53125,0,0,24.82912937869032,0.0,3.0
1623779172.0,0,0,6.5333432950821555,0.0,3.0
1623779172.46875,0,0,8.353208755040242,0.0,3.0
1623779172.9375,0,0,7.547929922759658,0.0,3.0
1623779173.40625,0,0,5.522023170052267,0.0,3.0
1623779173.875,0,0,3.108970196136805,0.0,3.0
1623779174.34375,0,0,8.27212504042437,0.0,3.0
1623779174.8125,0,0,0.0,0.0,3.0
1623779175.28125,0,0,0.0,0.0,3.0
1623779175.75,0,0,0.0,0.0,3.0
1623779176.21875,0,0,7.477296942307821,0.0,3.0
1623779176.6875,0,0,0.0,0.0,3.0
1623779177.15625,0,0,8.658672250638187,0.0,3.0
1623779177.625,0,0,5.987248329072984,0.0,3.0
1623779178.09375,0,0,5.197009592082649,0.0,3.0
1623779178.5625,0,0,7.2569785870163415,0.0,3.0
1623779179.03125,0,0,5.1851423116628865,0.0,3.0
1623779179.5,0,0,15.001080220469325,0.0,3.0
1623779179.96875,0,0,39.125772958765054,0.0,3.0
1623779180.4375,0,0,0.0,0.0,3.0
1623779180.90625,0,0,12.312996360715497,0.0,3.0
1623779181.375,0,0,54.702523635854305,0.0,3.0
1623779181.84375,0,0,38.573929446365426,0.0,3.0
1623779182.3125,0,0,0.0,0.0,3.0
1623779182.78125,0,0,26.004669765866844,0.0,3.0
1623779183.25,0,0,0.0,0.0,3.0
1623779183.71875,0,0,4.422231581999921,0.0,3.0
1623779184.1875,0,0,8.30181289478587,0.0,3.0
1623779184.65625,0,0,4.5868939877407175,0.0,3.0
1623779185.125,0,0,3.6126125124971034,0.0,3.0
1623779185.59375,0,0,6.129445129531276,0.0,3.0
1623779186.0625,0,0,0.0,0.0,3.0
1623779186.53125,0,0,12.14845487298669,0.0,3.0
1623779187.0,0,0,0.4783385415976839,0.0,3.0
1623779187.46875,0,0,1.18756395351526,0.0,3.0
1623779187.9375,0,0,8.766780174587494,0.0,3.0
1623779188.40625,0,0,0.0,0.0,3.0
1623779188.875,0,0,9.403383799325743,0.0,3.0
1623779189.34375,0,0,6.467617201237143,0.0,3.0
1623779189.8125,0,0,1.6338602356049394,0.0,3.0
1623779190.28125,0,0,9.139462089498759,0.0,3.0
1623779190.75,0,0,0.0,0.0,3.0
1623779191.21875,0,0,5.967459536916798,0.0,3.0
1623779191.6875,0,0,3.7149047391085968,0.0,3.0
1623779192.15625,0,0,0.0,0.0,3.0
1623779192.625,0,0,6.477964194206986,0.0,3.0
1623779193.09375,0,0,6.459508905841581,0.0,3.0
1623779193.5625,0,0,0.0,0.0,3.0
1623779194.03125,0,0,4.5946214480244185,0.0,3.0
1623779194.5,0,0,22.324589284882414,0.0,3.0
1623779194.96875,0,0,4.7333668153311,0.0,3.0
1623779195.4375,0,0,5.966564423887718,0.0,3.0
1623779195.90625,0,0,10.961841099921912,0.0,3.0
1623779196.375,0,0,6.732606764153137,0.0,3.0
1623779196.84375,0,0,7.407667954060656,0.0,3.0
1623779197.3125,0,0,9.12691160022092,0.0,3.0
1623779197.78125,0,0,0.0,0.0,3.0
1623779198.25,0,0,9.644820513175972,0.0,3.0
1623779198.71875,0,0,12.610018154896798,0.0,3.0
1623779199.1875,0,0,0.0,0.0,3.0
1623779199.65625,0,0,12.77527010367021,0.0,3.0
1623779200.125,0,0,0.0,0.0,3.0
1623779200.59375,0,0,8.751177993574991,0.0,3.0
1623779201.0625,0,0,12.113982037546632,0.0,3.0
1623779201.53125,0,0,0.0,0.0,3.0
1623779202.0,0,0,13.38160405746169,0.0,3.0
1623779202.46875,0,0,13.00867711464235,0.0,3.0
1623779202.9375,0,0,0.0,0.0,3.0
1623779203.40625,0,0,10.650249195676535,0.0,3.0
1623779203.875,0,0,12.430454401705228,0.0,3.0
1623779204.34375,0,0,4.436261054572734,0.0,3.0
1623779204.8125,0,0,9.609901201098241,0.0,3.0
1623779205.28125,0,0,0.0,0.0,3.0
1623779205.75,0,0,1.7196521705925842,0.0,3.0
1623779206.21875,0,0,15.638922469970629,0.0,3.0
1623779206.6875,0,0,6.196299035934727,0.0,3.0
1623779207.15625,0,0,7.642018695618116,0.0,3.0
1623779207.625,0,0,9.297524445762773,0.0,3.0
1623779208.09375,0,0,5.280209119173509,0.0,3.0
1623779208.5625,0,0,3.385155494538088,0.0,3.0
1623779209.03125,0,0,0.0,0.0,3.0
1623779209.5,0,0,0.0,0.0,3.0
1623779209.96875,0,0,24.25027416305262,0.0,3.0
1623779210.4375,0,0,0.0,0.0,3.0
1623779210.90625,0,0,13.415932937138503,0.0,3.0
1623779211.375,0,0,5.10051866904767,0.0,3.0
1623779211.84375,0,0,7.468232955381088,0.0,3.0
1623779212.3125,0,0,20.411963333109536,0.0,3.0
1623779212.78125,0,0,3.653348579900606,0.0,3.0
1623779213.25,0,0,0.0,0.0,3.0
1623779213.71875,0,0,21.297369938303994,0.0,3.0
1623779214.1875,0,0,0.0,0.0,3.0
1623779214.65625,0,0,22.108359685663487,0.0,3.0
1623779215.125,0,0,0.0,0.0,3.0
1623779215.59375,0,0,2.835665004509934,0.0,3.0
1623779216.0625,0,0,0.0,0.0,3.0
1623779216.53125,0,0,4.672736584018257,0.0,3.0
1623779217.0,0,0,7.759429166418745,0.0,3.0
1623779217.46875,0,0,9.314160380290234,0.0,3.0
1623779217.9375,0,0,-0.21635025774747788,0.0,3.0
1623779218.40625,0,0,8.123464353699086,0.0,3.0
1623779218.875,0,0,3.1451164424569282,0.0,3.0
1623779219.34375,0,0,7.12265519889413,0.0,3.0
1623779219.8125,0,0,10.941240118989596,0.0,3.0
1623779220.28125,0,0,2.4707797611556837,0.0,3.0
1623779220.75,0,0,9.485311618787845,0.0,3.0
1623779221.21875,0,0,0.0,0.0,3.0
1623779221.6875,0,0,9.174069062947115,0.0,3.0
1623779222.15625,0,0,11.782409629458034,0.0,3.0
1623779222.625,0,0,0.0,0.0,3.0
1623779223.09375,0,0,7.1002634278524495,0.0,3.0
1623779223.5625,0,0,0.0,0.0,3.0
1623779224.03125,0,0,15.43545131287912,0.0,3.0
1623779224.5,0,0,11.35928032636373,0.0,3.0
1623779224.96875,0,0,0.0,0.0,3.0
1623779225.4375,0,0,7.294134163381145,0.0,3.0
1623779225.90625,0,0,0.0,0.0,3.0
1623779226.375,0,0,0.0,0.0,3.0
1623779226.84375,0,0,6.097708646525386,0.0,3.0
1623779227.3125,0,0,0.0,0.0,3.0
1623779227.78125,0,0,7.4847904686188595,0.0,3.0
1623779228.25,0,0,10.778944215340362,0.0,3.0
1623779228.71875,0,0,0.0,0.0,3.0
1623779229.1875,0,0,6.758393265219065,0.0,3.0
1623779229.65625,0,0,3.371374108308781,0.0,3.0
1623779230.125,0,0,7.758833506885605,0.0,3.0
1623779230.59375,0,0,6.736879919064551,0.0,3.0
1623779231.0625,0,0,2.462985480118824,0.0,3.0
1623779231.53125,0,0,9.075911621048473,0.0,3.0
1623779232.0,0,0,0.0,0.0,3.0
1623779232.46875,0,0,10.08446405406697,0.0,3.0
1623779232.9375,0,0,7.611670717835237,0.0,3.0
1623779233.40625,0,0,0.0,0.0,3.0
1623779233.875,0,0,9.897701005531877,0.0,3.0
1623779234.34375,0,0,8.507843191110592,0.0,3.0
1623779234.8125,0,0,0.0,0.0,3.0
1623779235.28125,0,0,5.025960748447892,0.0,3.0
1623779235.75,0,0,9.95701425187944,0.0,3.0
1623779236.21875,0,0,9.083061242333208,0.0,3.0
1623779236.6875,0,0,11.382456248797428,0.0,3.0
1623779237.15625,0,0,0.0,0.0,3.0
1623779237.625,0,0,-10.523828817328765,0.0,3.0
1623779238.09375,0,0,0.0,0.0,3.0
1623779238.5625,0,0,84.75294402990534,0.0,3.0
1623779239.03125,0,0,41.62958305695313,0.0,3.0
1623779239.5,0,0,327.1647548055465,0.0,3.0
1623779239.96875,0,0,0.0,0.0,3.0
1623779240.4375,0,0,2.6660810697078103,0.0,3.0
1623779240.90625,0,0,10.203572374192138,0.0,3.0
1623779241.375,0,0,20.484225535834074,0.0,3.0
1623779241.84375,0,0,0.0,0.0,3.0
1623779242.3125,0,0,-1.1138409787449552,0.0,3.0
1623779242.78125,0,0,7.4389747667762345,0.0,3.0
1623779243.25,0,0,4.962297993804556,0.0,3.0
1623779243.71875,0,0,6.368240822933603,0.0,3.0
1623779244.1875,0,0,0.0,0.0,3.0
1623779244.65625,0,0,6.574272390712186,0.0,3.0
1623779245.125,0,0,5.1252979733540265,0.0,3.0
1623779245.59375,0,0,0.7835999934376802,0.0,3.0
1623779246.0625,0,0,9.151858194484987,0.0,3.0
1623779246.53125,0,0,0.0,0.0,3.0
1623779247.0,0,0,0.0,0.0,3.0
1623779247.46875,0,0,9.859593683911339,0.0,3.0
1623779247.9375,0,0,13.14049957160309,0.0,3.0
1623779248.40625,0,0,59.4653736244379,0.0,3.0
1623779248.875,0,0,177.33217212327887,0.0,3.0
1623779249.34375,0,0,0.0,0.0,3.0
1623779249.8125,0,0,28.66928369957608,0.0,3.0
1623779250.28125,0,0,0.0,0.0,3.0
1623779250.75,0,0,33.58888636740347,0.0,3.0
1623779251.21875,0,0,22.670564481716614,0.0,3.0
1623779251.6875,0,0,5.9965227784588375,0.0,3.0
1623779252.15625,0,0,1.2104980642856484,0.0,3.0
1623779252.625,0,0,2.6452292446703463,0.0,3.0
1623779253.09375,0,0,9.11521707557753,0.0,3.0
1623779253.5625,0,0,0.0,0.0,3.0
1623779254.03125,0,0,5.803003275339191,0.0,3.0
1623779254.5,0,0,18.896707605840664,0.0,3.0
1623779254.96875,0,0,5.207826995622832,0.0,3.0
1623779255.4375,0,0,0.0,0.0,3.0
1623779255.90625,0,0,0.0,0.0,3.0
1623779256.375,0,0,0.0,0.0,3.0
1623779256.84375,0,0,5.722117319336917,0.0,3.0
1623779257.3125,0,0,5.9279379097851335,0.0,3.0
1623779257.78125,0,0,4.71877666895886,0.0,3.0
1623779258.25,0,0,9.909677318082325,0.0,3.0
1623779258.71875,0,0,0.0,0.0,3.0
1623779259.1875,0,0,9.490686496015503,0.0,3.0
1623779259.65625,0,0,8.390273246305231,0.0,3.0
1623779260.125,0,0,2.7597904461834313,0.0,3.0
1623779260.59375,0,0,8.731836218149766,0.0,3.0
1623779261.0625,0,0,11.248351413940005,0.0,3.0
1623779261.53125,0,0,0.0,0.0,3.0
1623779262.0,0,0,10.176802188746468,0.0,3.0
1623779262.46875,0,0,9.55324529570339,0.0,3.0
1623779262.9375,0,0,7.769585300667366,0.0,3.0
1623779263.40625,0,0,5.544231207920142,0.0,3.0
1623779263.875,0,0,6.675554504740487,0.0,3.0
1623779264.34375,0,0,7.270223035242641,0.0,3.0
1623779264.8125,0,0,0.0,0.0,3.0
1623779265.28125,0,0,5.42648974859596,0.0,3.0
1623779265.75,0,0,0.0,0.0,3.0
1623779266.21875,0,0,6.744122426665995,0.0,3.0
