timestamp,mean_pulse_rate,pulse_rate_std,mean_pulse_amplitude,pulse_amplitude_std,block
1623777955.75,0,0,-12.514217248892066,0.0,1.0
1623777956.21875,0,0,182.08669974632195,0.0,1.0
1623777956.6875,0,0,9.191257775380752,0.0,1.0
1623777957.15625,0,0,261.90264505633934,0.0,1.0
1623777957.625,0,0,0.0,0.0,1.0
1623777958.09375,0,0,-6.9640164773591104,0.0,1.0
1623777958.5625,0,0,97.8690961456562,0.0,1.0
1623777959.03125,0,0,0.0,0.0,1.0
1623777959.5,0,0,0.0,0.0,1.0
1623777959.96875,0,0,12.556835362718006,0.0,1.0
1623777960.4375,0,0,18.528697782420547,0.0,1.0
1623777960.90625,0,0,-3.0833972982833378,0.0,1.0
1623777961.375,0,0,4.258893627048056,0.0,1.0
1623777961.84375,0,0,2.103366904123605,0.0,1.0
1623777962.3125,0,0,4.254125869668671,0.0,1.0
1623777962.78125,0,0,5.169452014089658,0.0,1.0
1623777963.25,0,0,4.89680811025134,0.0,1.0
1623777963.71875,0,0,6.440561463467635,0.0,1.0
1623777964.1875,0,0,1.1475995654716593,0.0,1.0
1623777964.65625,0,0,8.497493383996483,0.0,1.0
1623777965.125,0,0,4.635409203791323,0.0,1.0
1623777965.59375,0,0,0.0,0.0,1.0
1623777966.0625,0,0,7.816984551563081,0.0,1.0
1623777966.53125,0,0,0.0,0.0,1.0
1623777967.0,0,0,3.581617208975602,0.0,1.0
1623777967.46875,0,0,2.5977782751811507,0.0,1.0
1623777967.9375,0,0,2.3014382586704847,0.0,1.0
1623777968.40625,0,0,4.960869073669311,0.0,1.0
1623777968.875,0,0,-1.063333804350146,0.0,1.0
1623777969.34375,0,0,6.0048264967983815,0.0,1.0
1623777969.8125,0,0,5.851091395354362,0.0,1.0
1623777970.28125,0,0,1.7897649375828477,0.0,1.0
1623777970.75,0,0,1.8793046981871955,0.0,1.0
1623777971.21875,0,0,0.0,0.0,1.0
1623777971.6875,0,0,3.845864770777681,0.0,1.0
1623777972.15625,0,0,4.829748118293203,0.0,1.0
1623777972.625,0,0,4.4062203898281895,0.0,1.0
1623777973.09375,0,0,7.992023513742843,0.0,1.0
1623777973.5625,0,0,0.0,0.0,1.0
1623777974.03125,0,0,8.5833883440737,0.0,1.0
1623777974.5,0,0,7.81669390107551,0.0,1.0
1623777974.96875,0,0,4.298688108109715,0.0,1.0
1623777975.4375,0,0,7.468901735114242,0.0,1.0
1623777975.90625,0,0,6.340337334624795,0.0,1.0
1623777976.375,0,0,3.511006032912176,0.0,1.0
1623777976.84375,0,0,6.884477731699859,0.0,1.0
1623777977.3125,0,0,6.319140383952431,0.0,1.0
1623777977.78125,0,0,0.0,0.0,1.0
1623777978.25,0,0,5.5189250104944065,0.0,1.0
1623777978.71875,0,0,0.0,0.0,1.0
1623777979.1875,0,0,6.401091969684086,0.0,1.0
1623777979.65625,0,0,5.150524399652012,0.0,1.0
1623777980.125,0,0,4.8451771187957515,0.0,1.0
1623777980.59375,0,0,4.888583229269141,0.0,1.0
1623777981.0625,0,0,0.0,0.0,1.0
1623777981.53125,0,0,4.844478221228404,0.0,1.0
1623777982.0,0,0,2.56853718118604,0.0,1.0
1623777982.46875,0,0,2.9119740929585287,0.0,1.0
1623777982.9375,0,0,3.9753540473113427,0.0,1.0
1623777983.40625,0,0,0.0,0.0,1.0
1623777983.875,0,0,3.9911745186596135,0.0,1.0
1623777984.34375,0,0,3.0396714081628535,0.0,1.0
1623777984.8125,0,0,2.678528061293979,0.0,1.0
1623777985.28125,0,0,4.135805704834885,0.0,1.0
1623777985.75,0,0,3.158481023351269,0.0,1.0
1623777986.21875,0,0,0.0,0.0,1.0
1623777986.6875,0,0,3.380856215793098,0.0,1.0
1623777987.15625,0,0,4.121011991855114,0.0,1.0
1623777987.625,0,0,0.0,0.0,1.0
1623777988.09375,0,0,5.040898712010538,0.0,1.0
1623777988.5625,0,0,0.0,0.0,1.0
1623777989.03125,0,0,4.668923148242034,0.0,1.0
1623777989.5,0,0,1.2418701399494663,0.0,1.0
1623777989.96875,0,0,3.4919143554791803,0.0,1.0
1623777990.4375,0,0,3.9786793603655455,0.0,1.0
1623777990.90625,0,0,0.0,0.0,1.0
1623777991.375,0,0,4.431917082713885,0.0,1.0
1623777991.84375,0,0,4.0238868310487605,0.0,1.0
1623777992.3125,0,0,0.0,0.0,1.0
1623777992.78125,0,0,1.805818989037946,0.0,1.0
1623777993.25,0,0,0.0,0.0,1.0
1623777993.71875,0,0,3.9304729619672134,0.0,1.0
1623777994.1875,0,0,3.977172884888219,0.0,1.0
1623777994.65625,0,0,0.0,0.0,1.0
1623777995.125,0,0,4.9991448554209645,0.0,1.0
1623777995.59375,0,0,4.547713188186439,0.0,1.0
1623777996.0625,0,0,0.5308123979648542,0.0,1.0
1623777996.53125,0,0,4.928168788061083,0.0,1.0
1623777997.0,0,0,0.0,0.0,1.0
1623777997.46875,0,0,1.3622033226601715,0.0,1.0
1623777997.9375,0,0,4.762514988835565,0.0,1.0
1623777998.40625,0,0,0.0,0.0,1.0
1623777998.875,0,0,6.357389246948586,0.0,1.0
1623777999.34375,0,0,3.8381247710537667,0.0,1.0
1623777999.8125,0,0,2.905875384852543,0.0,1.0
1623778000.28125,0,0,4.873575860398751,0.0,1.0
1623778000.75,0,0,5.983081169796768,0.0,1.0
1623778001.21875,0,0,0.0,0.0,1.0
1623778001.6875,0,0,4.784605207020117,0.0,1.0
1623778002.15625,0,0,0.0,0.0,1.0
1623778002.625,0,0,0.0,0.0,1.0
1623778003.09375,0,0,2.8494591299920535,0.0,1.0
1623778003.5625,0,0,0.0,0.0,1.0
1623778004.03125,0,0,3.8348336693613425,0.0,1.0
1623778004.5,0,0,3.747826974182608,0.0,1.0
1623778004.96875,0,0,3.5271449814269684,0.0,1.0
1623778005.4375,0,0,4.2652186264467025,0.0,1.0
1623778005.90625,0,0,2.458681412024224,0.0,1.0
1623778006.375,0,0,2.541233621521844,0.0,1.0
1623778006.84375,0,0,3.8074357131344283,0.0,1.0
1623778007.3125,0,0,0.0,0.0,1.0
1623778007.78125,0,0,0.0,0.0,1.0
1623778008.25,0,0,2.5274890018252782,0.0,1.0
1623778008.71875,0,0,0.0,0.0,1.0
1623778009.1875,0,0,2.261440559429387,0.0,1.0
1623778009.65625,0,0,4.682479163239334,0.0,1.0
1623778010.125,0,0,5.120236803113238,0.0,1.0
1623778010.59375,0,0,2.991497420538849,0.0,1.0
1623778011.0625,0,0,2.9957294496052405,0.0,1.0
1623778011.53125,0,0,4.692270803699175,0.0,1.0
1623778012.0,0,0,0.0,0.0,1.0
1623778012.46875,0,0,5.366940122915591,0.0,1.0
1623778012.9375,0,0,5.99109766275484,0.0,1.0
1623778013.40625,0,0,3.032672763530134,0.0,1.0
1623778013.875,0,0,4.933842045487633,0.0,1.0
1623778014.34375,0,0,5.835988333073336,0.0,1.0
1623778014.8125,0,0,0.0,0.0,1.0
1623778015.28125,0,0,5.168571960005798,0.0,1.0
1623778015.75,0,0,5.665416603163347,0.0,1.0
1623778016.21875,0,0,0.7036113873830566,0.0,1.0
1623778016.6875,0,0,4.5358848782134755,0.0,1.0
1623778017.15625,0,0,2.9480609144025705,0.0,1.0
1623778017.625,0,0,0.0,0.0,1.0
1623778018.09375,0,0,4.2806712455146165,0.0,1.0
1623778018.5625,0,0,2.4729623515966392,0.0,1.0
1623778019.03125,0,0,3.1008543530239203,0.0,1.0
1623778019.5,0,0,4.666882981433032,0.0,1.0
1623778019.96875,0,0,4.962136487916261,0.0,1.0
1623778020.4375,0,0,3.981203145121145,0.0,1.0
1623778020.90625,0,0,4.6960149957750765,0.0,1.0
1623778021.375,0,0,3.5417632963513666,0.0,1.0
1623778021.84375,0,0,0.0,0.0,1.0
1623778022.3125,0,0,6.111377536742549,0.0,1.0
1623778022.78125,0,0,4.974749567923526,0.0,1.0
1623778023.25,0,0,0.0,0.0,1.0
1623778023.71875,0,0,6.157430954099617,0.0,1.0
1623778024.1875,0,0,7.02104648094023,0.0,1.0
1623778024.65625,0,0,5.540818597474682,0.0,1.0
1623778025.125,0,0,0.0,0.0,1.0
1623778025.59375,0,0,6.056904817733418,0.0,1.0
1623778026.0625,0,0,8.800442057716893,0.0,1.0
1623778026.53125,0,0,0.0,0.0,1.0
1623778027.0,0,0,8.644925410281918,0.0,1.0
1623778027.46875,0,0,7.647510343575982,0.0,1.0
1623778027.9375,0,0,0.0,0.0,1.0
1623778028.40625,0,0,6.714474754900474,0.0,1.0
1623778028.875,0,0,9.899063130248022,0.0,1.0
1623778029.34375,0,0,8.082818986168801,0.0,1.0
1623778029.8125,0,0,0.0,0.0,1.0
1623778030.28125,0,0,8.27211002121218,0.0,1.0
1623778030.75,0,0,8.319556034915088,0.0,1.0
1623778031.21875,0,0,8.30514376343499,0.0,1.0
1623778031.6875,0,0,0.0,0.0,1.0
1623778032.15625,0,0,6.946839535230865,0.0,1.0
1623778032.625,0,0,1.6909521544743658,0.0,1.0
1623778033.09375,0,0,0.0,0.0,1.0
1623778033.5625,0,0,6.21730691846633,0.0,1.0
1623778034.03125,0,0,7.106671460926612,0.0,1.0
1623778034.5,0,0,0.0,0.0,1.0
1623778034.96875,0,0,7.0369364532723795,0.0,1.0
1623778035.4375,0,0,6.341001503263195,0.0,1.0
1623778035.90625,0,0,0.0,0.0,1.0
1623778036.375,0,0,6.447423339952778,0.0,1.0
1623778036.84375,0,0,6.562330150657889,0.0,1.0
1623778037.3125,0,0,6.703724540215465,0.0,1.0
1623778037.78125,0,0,0.0,0.0,1.0
1623778038.25,0,0,5.623621595560653,0.0,1.0
1623778038.71875,0,0,5.103168623270772,0.0,1.0
1623778039.1875,0,0,3.5814514205334222,0.0,1.0
1623778039.65625,0,0,2.7945202018819035,0.0,1.0
1623778040.125,0,0,3.015946207089325,0.0,1.0
1623778040.59375,0,0,3.6032688210462513,0.0,1.0
1623778041.0625,0,0,4.995500633570876,0.0,1.0
1623778041.53125,0,0,5.416373289521418,0.0,1.0
1623778042.0,0,0,0.0,0.0,1.0
1623778042.46875,0,0,5.833737221122452,0.0,1.0
1623778042.9375,0,0,3.44986047115451,0.0,1.0
1623778043.40625,0,0,2.4740827515956245,0.0,1.0
1623778043.875,0,0,4.738433077021083,0.0,1.0
1623778044.34375,0,0,6.358055311668561,0.0,1.0
1623778044.8125,0,0,0.0,0.0,1.0
1623778045.28125,0,0,4.971625702845688,0.0,1.0
1623778045.75,0,0,3.9598671574292883,0.0,1.0
1623778046.21875,0,0,2.238176694832825,0.0,1.0
1623778046.6875,0,0,4.8564805964068265,0.0,1.0
1623778047.15625,0,0,4.771377788161868,0.0,1.0
1623778047.625,0,0,0.0,0.0,1.0
1623778048.09375,0,0,5.041280300716508,0.0,1.0
1623778048.5625,0,0,3.983667419195253,0.0,1.0
1623778049.03125,0,0,5.065850689872887,0.0,1.0
1623778049.5,0,0,5.412332334814549,0.0,1.0
1623778049.96875,0,0,4.389878842235174,0.0,1.0
1623778050.4375,0,0,1.7932541980033672,0.0,1.0
1623778050.90625,0,0,6.8139939930387134,0.0,1.0
1623778051.375,0,0,6.14377002603397,0.0,1.0
1623778051.84375,0,0,0.0,0.0,1.0
1623778052.3125,0,0,6.358395239605051,0.0,1.0
1623778052.78125,0,0,5.736053467743669,0.0,1.0
1623778053.25,0,0,10.862825450251384,0.0,1.0
1623778053.71875,0,0,0.0,0.0,1.0
1623778054.1875,0,0,6.777702953878906,0.0,1.0
1623778054.65625,0,0,6.947924655775889,0.0,1.0
1623778055.125,0,0,0.0,0.0,1.0
1623778055.59375,0,0,4.98560897588656,0.0,1.0
1623778056.0625,0,0,6.364845756463531,0.0,1.0
1623778056.53125,0,0,0.0,0.0,1.0
1623778057.0,0,0,3.8954924167418112,0.0,1.0
1623778057.46875,0,0,6.498161247047376,0.0,1.0
1623778057.9375,0,0,4.830868224971687,0.0,1.0
1623778058.40625,0,0,-0.8862042672903656,0.0,1.0
1623778058.875,0,0,5.7601121809637466,0.0,1.0
1623778059.34375,0,0,5.435626559916453,0.0,1.0
1623778059.8125,0,0,2.105116681983473,0.0,1.0
1623778060.28125,0,0,4.077770637673057,0.0,1.0
1623778060.75,0,0,2.9169170030939644,0.0,1.0
1623778061.21875,0,0,2.079621058862313,0.0,1.0
1623778061.6875,0,0,4.546415747159403,0.0,1.0
1623778062.15625,0,0,5.131888905748475,0.0,1.0
1623778062.625,0,0,2.3946801249611727,0.0,1.0
1623778063.09375,0,0,4.862167888686524,0.0,1.0
1623778063.5625,0,0,2.622797844668728,0.0,1.0
1623778064.03125,0,0,2.4605329637697007,0.0,1.0
1623778064.5,0,0,0.0,0.0,1.0
1623778064.96875,0,0,6.751317523513538,0.0,1.0
1623778065.4375,0,0,6.134196604947885,0.0,1.0
1623778065.90625,0,0,3.1656416220266403,0.0,1.0
1623778066.375,0,0,7.205687563055442,0.0,1.0
1623778066.84375,0,0,0.0,0.0,1.0
1623778067.3125,0,0,0.0,0.0,1.0
1623778067.78125,0,0,4.939612089664643,0.0,1.0
1623778068.25,0,0,7.31318795264667,0.0,1.0
1623778068.71875,0,0,8.09691760196434,0.0,1.0
1623778069.1875,0,0,0.0,0.0,1.0
1623778069.65625,0,0,8.2036085091798,0.0,1.0
1623778070.125,0,0,7.920368247119283,0.0,1.0
1623778070.59375,0,0,2.933803640966663,0.0,1.0
1623778071.0625,0,0,6.211645550337526,0.0,1.0
1623778071.53125,0,0,5.631427265157738,0.0,1.0
1623778072.0,0,0,5.975620476873188,0.0,1.0
1623778072.46875,0,0,9.092870556972057,0.0,1.0
1623778072.9375,0,0,8.789901935962577,0.0,1.0
1623778073.40625,0,0,0.0,0.0,1.0
1623778073.875,0,0,7.864303227149938,0.0,1.0
1623778074.34375,0,0,7.743231982303246,0.0,1.0
1623778074.8125,0,0,5.9684683233186195,0.0,1.0
1623778075.28125,0,0,3.985569208687237,0.0,1.0
1623778075.75,0,0,4.407486208563244,0.0,1.0
1623778076.21875,0,0,3.9996808487599966,0.0,1.0
1623778076.6875,0,0,2.8283532921093513,0.0,1.0
1623778077.15625,0,0,3.8220728548380287,0.0,1.0
1623778077.625,0,0,4.8858410696721375,0.0,1.0
1623778078.09375,0,0,4.4541770742940034,0.0,1.0
1623778078.5625,0,0,4.074240085486727,0.0,1.0
1623778079.03125,0,0,5.070361258447611,0.0,1.0
1623778079.5,0,0,4.384249368114854,0.0,1.0
1623778079.96875,0,0,3.062488232830894,0.0,1.0
1623778080.4375,0,0,6.221075888487099,0.0,1.0
1623778080.90625,0,0,5.103845027494677,0.0,1.0
1623778081.375,0,0,0.0,0.0,1.0
1623778081.84375,0,0,4.939670188888669,0.0,1.0
1623778082.3125,0,0,5.565806427952798,0.0,1.0
1623778082.78125,0,0,1.7638216217663383,0.0,1.0
1623778083.25,0,0,4.92932236497202,0.0,1.0
1623778083.71875,0,0,6.6321924712422184,0.0,1.0
1623778084.1875,0,0,5.191069729928213,0.0,1.0
1623778084.65625,0,0,3.296504448489012,0.0,1.0
1623778085.125,0,0,6.671883513212286,0.0,1.0
1623778085.59375,0,0,6.866140140079942,0.0,1.0
1623778086.0625,0,0,0.0,0.0,1.0
1623778086.53125,0,0,7.463952739592321,0.0,1.0
1623778087.0,0,0,5.366015650382862,0.0,1.0
1623778087.46875,0,0,6.579467601571176,0.0,1.0
1623778087.9375,0,0,6.521049176924174,0.0,1.0
1623778088.40625,0,0,4.468397058908026,0.0,1.0
1623778088.875,0,0,4.520732416773451,0.0,1.0
1623778089.34375,0,0,5.905858182333194,0.0,1.0
1623778089.8125,0,0,1.7056146467733733,0.0,1.0
1623778090.28125,0,0,0.0,0.0,1.0
1623778090.75,0,0,0.0,0.0,1.0
1623778091.21875,0,0,75.69060832892802,0.0,1.0
1623778091.6875,0,0,81.45205397777201,0.0,1.0
1623778092.15625,0,0,0.0,0.0,1.0
1623778092.625,0,0,35.09488894893678,0.0,1.0
1623778093.09375,0,0,1.5114538780333708,0.0,1.0
1623778093.5625,0,0,46.96291880655402,0.0,1.0
1623778094.03125,0,0,0.0,0.0,1.0
1623778094.5,0,0,0.3559727297824976,0.0,1.0
1623778094.96875,0,0,9.52644414040481,0.0,1.0
1623778095.4375,0,0,8.169120186822862,0.0,1.0
1623778095.90625,0,0,9.350515725525838,0.0,1.0
1623778096.375,0,0,0.0,0.0,1.0
1623778096.84375,0,0,5.02575652564794,0.0,1.0
1623778097.3125,0,0,5.9656013206031755,0.0,1.0
1623778097.78125,0,0,0.0,0.0,1.0
1623778098.25,0,0,5.155256350922574,0.0,1.0
1623778098.71875,0,0,0.0,0.0,1.0
1623778099.1875,0,0,0.0,0.0,1.0
1623778099.65625,0,0,4.8016548932338825,0.0,1.0
1623778100.125,0,0,0.0,0.0,1.0
1623778100.59375,0,0,6.595495429986205,0.0,1.0
1623778101.0625,0,0,0.0,0.0,1.0
1623778101.53125,0,0,6.198563040712179,0.0,1.0
1623778102.0,0,0,7.912707656061904,0.0,1.0
1623778102.46875,0,0,0.0,0.0,1.0
1623778102.9375,0,0,5.964369177953089,0.0,1.0
1623778103.40625,0,0,3.1917650992496096,0.0,1.0
1623778103.875,0,0,0.0,0.0,1.0
1623778104.34375,0,0,7.067727056394574,0.0,1.0
1623778104.8125,0,0,58.7866222449481,0.0,1.0
1623778105.28125,0,0,9.41751921542435,0.0,1.0
1623778105.75,0,0,10.083954372969767,0.0,1.0
1623778106.21875,0,0,0.0,0.0,1.0
1623778106.6875,0,0,14.730873201660199,0.0,1.0
1623778107.15625,0,0,7.706780972081305,0.0,1.0
1623778107.625,0,0,0.0,0.0,1.0
1623778108.09375,0,0,16.609539941349983,0.0,1.0
1623778108.5625,0,0,6.724948032490328,0.0,1.0
1623778109.03125,0,0,0.0,0.0,1.0
1623778109.5,0,0,10.050173765162993,0.0,1.0
1623778109.96875,0,0,7.89588141340327,0.0,1.0
1623778110.4375,0,0,0.0,0.0,1.0
1623778110.90625,0,0,7.950734950413187,0.0,1.0
1623778111.375,0,0,5.188333889551649,0.0,1.0
1623778111.84375,0,0,3.8128690267733374,0.0,1.0
1623778112.3125,0,0,6.102332774849142,0.0,1.0
1623778112.78125,0,0,6.517587337468641,0.0,1.0
1623778113.25,0,0,0.0,0.0,1.0
1623778113.71875,0,0,4.692289489092507,0.0,1.0
1623778114.1875,0,0,5.061007080077058,0.0,1.0
1623778114.65625,0,0,3.175667190284034,0.0,1.0
1623778115.125,0,0,3.8879883938494686,0.0,1.0
1623778115.59375,0,0,0.0,0.0,1.0
1623778116.0625,0,0,5.277295614161623,0.0,1.0
1623778116.53125,0,0,3.834381349108566,0.0,1.0
1623778117.0,0,0,2.5965062446832996,0.0,1.0
1623778117.46875,0,0,3.95641130813674,0.0,1.0
1623778117.9375,0,0,0.0,0.0,1.0
1623778118.40625,0,0,5.887335401599344,0.0,1.0
1623778118.875,0,0,4.861374336178623,0.0,1.0
1623778119.34375,0,0,2.8561482177721365,0.0,1.0
1623778119.8125,0,0,5.2712057478229095,0.0,1.0
1623778120.28125,0,0,5.379918051388848,0.0,1.0
1623778120.75,0,0,4.011290614277865,0.0,1.0
1623778121.21875,0,0,4.561513478510133,0.0,1.0
1623778121.6875,0,0,0.0,0.0,1.0
1623778122.15625,0,0,5.159942323113972,0.0,1.0
1623778122.625,0,0,0.0,0.0,1.0
1623778123.09375,0,0,7.168057607593324,0.0,1.0
1623778123.5625,0,0,7.19633647766803,0.0,1.0
1623778124.03125,0,0,0.0,0.0,1.0
1623778124.5,0,0,5.678488141444051,0.0,1.0
1623778124.96875,0,0,8.266256734111666,0.0,1.0
1623778125.4375,0,0,0.0,0.0,1.0
1623778125.90625,0,0,6.237600232017185,0.0,1.0
1623778126.375,0,0,9.125407466226916,0.0,1.0
1623778126.84375,0,0,0.0,0.0,1.0
1623778127.3125,0,0,7.878289192736793,0.0,1.0
1623778127.78125,0,0,5.000622981619867,0.0,1.0
1623778128.25,0,0,0.0,0.0,1.0
1623778128.71875,0,0,5.711811607154761,0.0,1.0
1623778129.1875,0,0,0.0,0.0,1.0
1623778129.65625,0,0,5.063604466006733,0.0,1.0
1623778130.125,0,0,8.077872416597021,0.0,1.0
1623778130.59375,0,0,-2.10641401112452,0.0,1.0
1623778131.0625,0,0,6.800986668692352,0.0,1.0
1623778131.53125,0,0,7.011292613240415,0.0,1.0
1623778132.0,0,0,0.0,0.0,1.0
1623778132.46875,0,0,2.914526108251998,0.0,1.0
1623778132.9375,0,0,2.7291325035240175,0.0,1.0
1623778133.40625,0,0,3.4224287511525033,0.0,1.0
1623778133.875,0,0,4.834506820303328,0.0,1.0
1623778134.34375,0,0,5.494699982858895,0.0,1.0
1623778134.8125,0,0,0.0,0.0,1.0
1623778135.28125,0,0,4.269559148343475,0.0,1.0
1623778135.75,0,0,4.959074400507673,0.0,1.0
1623778136.21875,0,0,0.0,0.0,1.0
1623778136.6875,0,0,3.9369460108263246,0.0,1.0
1623778137.15625,0,0,4.118438743711856,0.0,1.0
1623778137.625,0,0,4.285660025667494,0.0,1.0
1623778138.09375,0,0,6.469289913844666,0.0,1.0
1623778138.5625,0,0,8.167636217230113,0.0,1.0
1623778139.03125,0,0,0.0,0.0,1.0
1623778139.5,0,0,6.361343655611764,0.0,1.0
1623778139.96875,0,0,7.166000511010384,0.0,1.0
1623778140.4375,0,0,2.6786285385022097,0.0,1.0
1623778140.90625,0,0,7.70697608917882,0.0,1.0
1623778141.375,0,0,9.076638875481583,0.0,1.0
1623778141.84375,0,0,0.0,0.0,1.0
1623778142.3125,0,0,5.974766436673266,0.0,1.0
1623778142.78125,0,0,0.0,0.0,1.0
1623778143.25,0,0,7.649364641069517,0.0,1.0
1623778143.71875,0,0,8.00886434327996,0.0,1.0
1623778144.1875,0,0,0.0,0.0,1.0
1623778144.65625,0,0,6.3847978031396595,0.0,1.0
1623778145.125,0,0,7.574868202952554,0.0,1.0
1623778145.59375,0,0,0.0,0.0,1.0
1623778146.0625,0,0,9.057260837636596,0.0,1.0
1623778146.53125,0,0,9.372433215200386,0.0,1.0
1623778147.0,0,0,10.633950400079952,0.0,1.0
1623778147.46875,0,0,0.0,0.0,1.0
1623778147.9375,0,0,9.52290263224878,0.0,1.0
1623778148.40625,0,0,5.900813642555201,0.0,1.0
1623778148.875,0,0,0.0,0.0,1.0
1623778149.34375,0,0,7.498929276539985,0.0,1.0
1623778149.8125,0,0,3.709904015156816,0.0,1.0
1623778150.28125,0,0,4.253643439358094,0.0,1.0
1623778150.75,0,0,4.074926297263976,0.0,1.0
1623778151.21875,0,0,-0.5318785494181735,0.0,1.0
1623778151.6875,0,0,8.520378742307612,0.0,1.0
1623778152.15625,0,0,4.675349134665027,0.0,1.0
1623778152.625,0,0,0.0,0.0,1.0
1623778153.09375,0,0,3.789717943498937,0.0,1.0
1623778153.5625,0,0,4.147341550069396,0.0,1.0
1623778154.03125,0,0,4.551087059691355,0.0,1.0
1623778154.5,0,0,5.663411187628502,0.0,1.0
1623778154.96875,0,0,0.0,0.0,1.0
1623778155.4375,0,0,5.444017587534628,0.0,1.0
1623778155.90625,0,0,6.087097742648961,0.0,1.0
1623778156.375,0,0,4.256402498106935,0.0,1.0
1623778156.84375,0,0,6.01791189231404,0.0,1.0
1623778157.3125,0,0,0.0,0.0,1.0
1623778157.78125,0,0,5.624377260088308,0.0,1.0
1623778158.25,0,0,5.6381560693895105,0.0,1.0
1623778158.71875,0,0,4.672105398397381,0.0,1.0
1623778159.1875,0,0,7.49765131571391,0.0,1.0
1623778159.65625,0,0,7.652609928693597,0.0,1.0
1623778160.125,0,0,0.0,0.0,1.0
1623778160.59375,0,0,7.764745377987848,0.0,1.0
1623778161.0625,0,0,0.0,0.0,1.0
1623778161.53125,0,0,5.445436639332715,0.0,1.0
1623778162.0,0,0,6.2997865869604395,0.0,1.0
1623778162.46875,0,0,4.465086306985081,0.0,1.0
1623778162.9375,0,0,6.749396697406511,0.0,1.0
1623778163.40625,0,0,9.544141890932226,0.0,1.0
1623778163.875,0,0,2.0841069305883804,0.0,1.0
1623778164.34375,0,0,5.898962801668867,0.0,1.0
1623778164.8125,0,0,4.436625580373213,0.0,1.0
1623778165.28125,0,0,6.074793099716865,0.0,1.0
1623778165.75,0,0,5.736410716245547,0.0,1.0
1623778166.21875,0,0,7.386352314183803,0.0,1.0
1623778166.6875,0,0,7.2270841073459335,0.0,1.0
1623778167.15625,0,0,0.0,0.0,1.0
1623778167.625,0,0,6.818274688215272,0.0,1.0
1623778168.09375,0,0,0.0,0.0,1.0
1623778168.5625,0,0,2.3536584592029337,0.0,1.0
1623778169.03125,0,0,9.270173158735835,0.0,1.0
1623778169.5,0,0,1.564059076892877,0.0,1.0
1623778169.96875,0,0,0.0,0.0,1.0
1623778170.4375,0,0,6.200325180362143,0.0,1.0
1623778170.90625,0,0,0.0,0.0,1.0
1623778171.375,0,0,3.9457105074221293,0.0,1.0
1623778171.84375,0,0,5.184871499614627,0.0,1.0
1623778172.3125,0,0,0.0,0.0,1.0
1623778172.78125,0,0,0.0,0.0,1.0
1623778173.25,0,0,0.0,0.0,1.0
1623778173.71875,0,0,6.573345600019465,0.0,1.0
1623778174.1875,0,0,0.0,0.0,1.0
1623778174.65625,0,0,0.0,0.0,1.0
1623778175.125,0,0,3.617566800339621,0.0,1.0
1623778175.59375,0,0,3.1145743588718062,0.0,1.0
1623778176.0625,0,0,5.079082013976516,0.0,1.0
1623778176.53125,0,0,0.0,0.0,1.0
1623778177.0,0,0,5.129027100431009,0.0,1.0
1623778177.46875,0,0,5.024710443386736,0.0,1.0
1623778177.9375,0,0,0.0,0.0,1.0
1623778178.40625,0,0,3.972842379798715,0.0,1.0
1623778178.875,0,0,9.445867047341913,0.0,1.0
1623778179.34375,0,0,0.0,0.0,1.0
1623778179.8125,0,0,5.130360933430952,0.0,1.0
1623778180.28125,0,0,0.0,0.0,1.0
1623778180.75,0,0,4.247857476802194,0.0,1.0
1623778181.21875,0,0,5.180650288439274,0.0,1.0
1623778181.6875,0,0,0.0,0.0,1.0
1623778182.15625,0,0,6.0493924510163755,0.0,1.0
1623778182.625,0,0,7.9841880519813095,0.0,1.0
1623778183.09375,0,0,0.0,0.0,1.0
1623778183.5625,0,0,6.846595503219203,0.0,1.0
1623778184.03125,0,0,0.0,0.0,1.0
1623778184.5,0,0,5.460973517696779,0.0,1.0
1623778184.96875,0,0,0.0,0.0,1.0
1623778185.4375,0,0,6.87555910878346,0.0,1.0
1623778185.90625,0,0,5.63255814575738,0.0,1.0
1623778186.375,0,0,5.469056905240272,0.0,1.0
1623778186.84375,0,0,6.299545556007447,0.0,1.0
1623778187.3125,0,0,0.0,0.0,1.0
1623778187.78125,0,0,6.09172887812203,0.0,1.0
1623778188.25,0,0,8.39030347462045,0.0,1.0
1623778188.71875,0,0,0.0,0.0,1.0
1623778189.1875,0,0,8.604293455828804,0.0,1.0
1623778189.65625,0,0,0.0,0.0,1.0
1623778190.125,0,0,0.0,0.0,1.0
1623778190.59375,0,0,6.348504682850177,0.0,1.0
1623778191.0625,0,0,0.0,0.0,1.0
1623778191.53125,0,0,8.662458092854022,0.0,1.0
1623778192.0,0,0,7.6705802162535095,0.0,1.0
1623778192.46875,0,0,-3.2178377549730053,0.0,1.0
1623778192.9375,0,0,10.357224526040971,0.0,1.0
1623778193.40625,0,0,0.0,0.0,1.0
1623778193.875,0,0,7.061829926002333,0.0,1.0
1623778194.34375,0,0,6.1961999270013095,0.0,1.0
1623778194.8125,0,0,4.47914335787678,0.0,1.0
1623778195.28125,0,0,7.728549006579042,0.0,1.0
1623778195.75,0,0,0.0,0.0,1.0
1623778196.21875,0,0,7.47142921929667,0.0,1.0
1623778196.6875,0,0,10.155589649882351,0.0,1.0
1623778197.15625,0,0,5.043819827955259,0.0,1.0
1623778197.625,0,0,7.223642908234392,0.0,1.0
1623778198.09375,0,0,0.0,0.0,1.0
1623778198.5625,0,0,7.467817787227377,0.0,1.0
1623778199.03125,0,0,9.79418577216536,0.0,1.0
1623778199.5,0,0,0.0,0.0,1.0
1623778199.96875,0,0,9.804936464564223,0.0,1.0
1623778200.4375,0,0,10.056019479134179,0.0,1.0
1623778200.90625,0,0,0.0,0.0,1.0
1623778201.375,0,0,7.417822140831249,0.0,1.0
1623778201.84375,0,0,0.0,0.0,1.0
1623778202.3125,0,0,5.865508791856152,0.0,1.0
1623778202.78125,0,0,7.938636076457667,0.0,1.0
1623778203.25,0,0,0.0,0.0,1.0
1623778203.71875,0,0,6.848032986363026,0.0,1.0
1623778204.1875,0,0,0.0,0.0,1.0
1623778204.65625,0,0,6.605300071030044,0.0,1.0
1623778205.125,0,0,5.805703628107842,0.0,1.0
1623778205.59375,0,0,0.0,0.0,1.0
1623778206.0625,0,0,6.412240942728484,0.0,1.0
1623778206.53125,0,0,0.0,0.0,1.0
1623778207.0,0,0,5.347388050008513,0.0,1.0
1623778207.46875,0,0,4.443592032207775,0.0,1.0
1623778207.9375,0,0,3.4589872817060643,0.0,1.0
1623778208.40625,0,0,7.669367338008552,0.0,1.0
1623778208.875,0,0,0.0,0.0,1.0
1623778209.34375,0,0,4.8145881527601055,0.0,1.0
1623778209.8125,0,0,6.169255847128846,0.0,1.0
1623778210.28125,0,0,0.0,0.0,1.0
1623778210.75,0,0,7.204375454690382,0.0,1.0
1623778211.21875,0,0,5.475071039468025,0.0,1.0
1623778211.6875,0,0,5.430926902477638,0.0,1.0
1623778212.15625,0,0,5.551493129321576,0.0,1.0
1623778212.625,0,0,-7.3980745305946485,0.0,1.0
1623778213.09375,0,0,12.741512058699666,0.0,1.0
1623778213.5625,0,0,6.2796732204989665,0.0,1.0
1623778214.03125,0,0,7.0178448125922746,0.0,1.0
1623778214.5,0,0,0.0,0.0,1.0
1623778214.96875,0,0,4.874877326651499,0.0,1.0
1623778215.4375,0,0,5.434134905825594,0.0,1.0
1623778215.90625,0,0,4.76160205169366,0.0,1.0
1623778216.375,0,0,5.2542876484172165,0.0,1.0
1623778216.84375,0,0,0.0,0.0,1.0
1623778217.3125,0,0,3.715154754934432,0.0,1.0
1623778217.78125,0,0,3.699356898890495,0.0,1.0
1623778218.25,0,0,4.0075244497547855,0.0,1.0
1623778218.71875,0,0,0.0,0.0,1.0
1623778219.1875,0,0,3.1813467876640433,0.0,1.0
1623778219.65625,0,0,3.553000510069728,0.0,1.0
1623778220.125,0,0,0.0,0.0,1.0
1623778220.59375,0,0,3.6934266659896453,0.0,1.0
1623778221.0625,0,0,5.208465284620448,0.0,1.0
1623778221.53125,0,0,2.078001250998835,0.0,1.0
1623778222.0,0,0,4.832552476994153,0.0,1.0
1623778222.46875,0,0,5.122435555438322,0.0,1.0
1623778222.9375,0,0,0.0,0.0,1.0
1623778223.40625,0,0,2.4999807365315028,0.0,1.0
1623778223.875,0,0,6.323198878600018,0.0,1.0
1623778224.34375,0,0,5.4201525037340685,0.0,1.0
1623778224.8125,0,0,0.0,0.0,1.0
1623778225.28125,0,0,4.622527580296524,0.0,1.0
1623778225.75,0,0,7.02367947512829,0.0,1.0
1623778226.21875,0,0,0.0,0.0,1.0
1623778226.6875,0,0,5.941897827483351,0.0,1.0
1623778227.15625,0,0,6.751193825641195,0.0,1.0
1623778227.625,0,0,0.0,0.0,1.0
1623778228.09375,0,0,7.605545214094532,0.0,1.0
1623778228.5625,0,0,6.68905777365012,0.0,1.0
1623778229.03125,0,0,0.0,0.0,1.0
1623778229.5,0,0,6.185166660915873,0.0,1.0
1623778229.96875,0,0,6.411824168195198,0.0,1.0
1623778230.4375,0,0,0.0,0.0,1.0
1623778230.90625,0,0,6.029206047125335,0.0,1.0
1623778231.375,0,0,6.492296453078188,0.0,1.0
1623778231.84375,0,0,0.0,0.0,1.0
1623778232.3125,0,0,0.0,0.0,1.0
1623778232.78125,0,0,5.7183084128949835,0.0,1.0
1623778233.25,0,0,3.0056856714529063,0.0,1.0
1623778233.71875,0,0,3.4156143096141034,0.0,1.0
1623778234.1875,0,0,4.201398868368458,0.0,1.0
1623778234.65625,0,0,5.636472723206314,0.0,1.0
1623778235.125,0,0,0.0,0.0,1.0
1623778235.59375,0,0,4.237173265651518,0.0,1.0
1623778236.0625,0,0,0.0,0.0,1.0
1623778236.53125,0,0,4.55572027408361,0.0,1.0
1623778237.0,0,0,5.125096081998845,0.0,1.0
1623778237.46875,0,0,0.0,0.0,1.0
1623778237.9375,0,0,5.800333867416456,0.0,1.0
1623778238.40625,0,0,4.204489877005496,0.0,1.0
1623778238.875,0,0,0.0,0.0,1.0
1623778239.34375,0,0,4.426939910727465,0.0,1.0
1623778239.8125,0,0,0.0,0.0,1.0
1623778240.28125,0,0,5.302022633142499,0.0,1.0
1623778240.75,0,0,4.544732052461726,0.0,1.0
1623778241.21875,0,0,4.18276469065708,0.0,1.0
1623778241.6875,0,0,2.8522208259830077,0.0,1.0
1623778242.15625,0,0,3.971448736524443,0.0,1.0
1623778242.625,0,0,5.897462886840027,0.0,1.0
1623778243.09375,0,0,4.944334277399966,0.0,1.0
1623778243.5625,0,0,8.191622678162673,0.0,1.0
1623778244.03125,0,0,5.5121683186397945,0.0,1.0
1623778244.5,0,0,2.751277060713258,0.0,1.0
1623778244.96875,0,0,5.540008830325931,0.0,1.0
1623778245.4375,0,0,5.0345119284072055,0.0,1.0
1623778245.90625,0,0,4.877651874349288,0.0,1.0
1623778246.375,0,0,6.436318087797964,0.0,1.0
1623778246.84375,0,0,7.0224025674079575,0.0,1.0
1623778247.3125,0,0,0.0,0.0,1.0
1623778247.78125,0,0,6.814029784938289,0.0,1.0
1623778248.25,0,0,5.843000025766958,0.0,1.0
1623778248.71875,0,0,0.0,0.0,1.0
1623778249.1875,0,0,4.64243228418648,0.0,1.0
1623778249.65625,0,0,5.867051106040226,0.0,1.0
1623778250.125,0,0,0.0,0.0,1.0
1623778250.59375,0,0,5.434884272317036,0.0,1.0
1623778251.0625,0,0,6.553460589377025,0.0,1.0
1623778251.53125,0,0,0.0,0.0,1.0
1623778252.0,0,0,7.159900528903859,0.0,1.0
1623778252.46875,0,0,0.0,0.0,1.0
1623778252.9375,0,0,6.464039458867552,0.0,1.0
1623778253.40625,0,0,4.233478470699762,0.0,1.0
1623778253.875,0,0,2.596383441413975,0.0,1.0
1623778254.34375,0,0,5.3477176115318015,0.0,1.0
1623778254.8125,0,0,0.0,0.0,1.0
1623778255.28125,0,0,3.685583353320536,0.0,1.0
1623778255.75,0,0,0.0,0.0,1.0
1623778256.21875,0,0,0.0,0.0,1.0
1623778256.6875,0,0,3.9190646634979327,0.0,1.0
1623778257.15625,0,0,4.433048382421149,0.0,1.0
1623778257.625,0,0,0.0,0.0,1.0
1623778258.09375,0,0,6.023428247740964,0.0,1.0
1623778258.5625,0,0,4.337334659546891,0.0,1.0
1623778259.03125,0,0,3.6352184349011534,0.0,1.0
1623778259.5,0,0,6.983056703096706,0.0,1.0
1623778259.96875,0,0,6.981474521179321,0.0,1.0
1623778260.4375,0,0,0.0,0.0,1.0
1623778260.90625,0,0,5.15197101233389,0.0,1.0
1623778261.375,0,0,7.103980738223937,0.0,1.0
1623778261.84375,0,0,3.3537267933031227,0.0,1.0
1623778262.3125,0,0,5.7129408438177185,0.0,1.0
1623778262.78125,0,0,5.165395382166754,0.0,1.0
1623778263.25,0,0,0.0,0.0,1.0
1623778263.71875,0,0,8.118484393717104,0.0,1.0
1623778264.1875,0,0,4.183581117150181,0.0,1.0
1623778264.65625,0,0,0.0,0.0,1.0
1623778265.125,0,0,0.39272758929275986,0.0,1.0
1623778265.59375,0,0,101.69995742534103,0.0,1.0
1623778266.0625,0,0,201.0251067164551,0.0,1.0
1623778266.53125,0,0,-7.581401778455414,0.0,1.0
1623778267.0,0,0,70.06641930010981,0.0,1.0
1623778267.46875,0,0,13.3075589988394,0.0,1.0
1623778267.9375,0,0,9.9429640434565,0.0,1.0
1623778268.40625,0,0,0.0,0.0,1.0
1623778268.875,0,0,20.090346410463237,0.0,1.0
1623778269.34375,0,0,13.488251322203801,0.0,1.0
1623778269.8125,0,0,0.0,0.0,1.0
1623778270.28125,0,0,14.415469881422549,0.0,1.0
1623778270.75,0,0,10.48324325399152,0.0,1.0
1623778271.21875,0,0,0.0,0.0,1.0
1623778271.6875,0,0,5.677050917340143,0.0,1.0
1623778272.15625,0,0,2.593276049846091,0.0,1.0
1623778272.625,0,0,25.94368601262688,0.0,1.0
1623778273.09375,0,0,35.39726626872462,0.0,1.0
1623778273.5625,0,0,221.21768782021934,0.0,1.0
1623778274.03125,0,0,-8.88628883685869,0.0,1.0
1623778274.5,0,0,0.0,0.0,1.0
1623778274.96875,0,0,8.17010395110913,0.0,1.0
1623778275.4375,0,0,0.0,0.0,1.0
1623778275.90625,0,0,35.66219985271247,0.0,1.0
1623778276.375,0,0,132.7564609294726,0.0,1.0
1623778276.84375,0,0,0.0,0.0,1.0
1623778277.3125,0,0,0.0,0.0,1.0
1623778277.78125,0,0,9.000718890665086,0.0,1.0
1623778278.25,0,0,5.6245455185294455,0.0,1.0
1623778278.71875,0,0,0.0,0.0,1.0
1623778279.1875,0,0,2.8587822221838843,0.0,1.0
1623778279.65625,0,0,0.0,0.0,1.0
1623778280.125,0,0,2.0294891588549384,0.0,1.0
1623778280.59375,0,0,7.036756393063903,0.0,1.0
1623778281.0625,0,0,0.0,0.0,1.0
1623778281.53125,0,0,7.122776189018499,0.0,1.0
1623778282.0,0,0,1.9473208057761144,0.0,1.0
1623778282.46875,0,0,2.7334294969029322,0.0,1.0
1623778282.9375,0,0,0.9149450006566848,0.0,1.0
1623778283.40625,0,0,2.3586993214643472,0.0,1.0
1623778283.875,0,0,3.6523443735299836,0.0,1.0
1623778284.34375,0,0,0.0,0.0,1.0
1623778284.8125,0,0,4.576099714847018,0.0,1.0
1623778285.28125,0,0,0.0,0.0,1.0
1623778285.75,0,0,3.1259551750589507,0.0,1.0
1623778286.21875,0,0,4.919042473962238,0.0,1.0
1623778286.6875,0,0,0.0,0.0,1.0
1623778287.15625,0,0,4.092303556487532,0.0,1.0
1623778287.625,0,0,3.159481451771152,0.0,1.0
1623778288.09375,0,0,4.124299354146189,0.0,1.0
1623778288.5625,0,0,3.004264535615064,0.0,1.0
1623778289.03125,0,0,0.0,0.0,1.0
1623778289.5,0,0,4.093634308286878,0.0,1.0
1623778289.96875,0,0,4.079025868695392,0.0,1.0
1623778290.4375,0,0,2.93466290288883,0.0,1.0
1623778290.90625,0,0,4.979702759569296,0.0,1.0
1623778291.375,0,0,0.0,0.0,1.0
1623778291.84375,0,0,4.02123856239645,0.0,1.0
1623778292.3125,0,0,2.104018677340661,0.0,1.0
1623778292.78125,0,0,0.5951936470612277,0.0,1.0
1623778293.25,0,0,4.849214012903983,0.0,1.0
1623778293.71875,0,0,0.0,0.0,1.0
1623778294.1875,0,0,4.712224102037332,0.0,1.0
1623778294.65625,0,0,4.843295763022641,0.0,1.0
1623778295.125,0,0,0.0,0.0,1.0
1623778295.59375,0,0,3.2854024077668345,0.0,1.0
1623778296.0625,0,0,0.0,0.0,1.0
1623778296.53125,0,0,3.6983694119663757,0.0,1.0
1623778297.0,0,0,0.0,0.0,1.0
1623778297.46875,0,0,4.166022739128568,0.0,1.0
1623778297.9375,0,0,4.6661164490511355,0.0,1.0
1623778298.40625,0,0,0.0,0.0,1.0
1623778298.875,0,0,3.914994246485575,0.0,1.0
1623778299.34375,0,0,4.515972369674287,0.0,1.0
1623778299.8125,0,0,0.0,0.0,1.0
1623778300.28125,0,0,5.44564389039169,0.0,1.0
1623778300.75,0,0,0.0,0.0,1.0
1623778301.21875,0,0,0.0,0.0,1.0
1623778301.6875,0,0,3.8676456654925997,0.0,1.0
1623778302.15625,0,0,5.641640546597939,0.0,1.0
1623778302.625,0,0,2.1564666413498004,0.0,1.0
1623778303.09375,0,0,0.0,0.0,1.0
1623778303.5625,0,0,4.759074876318206,0.0,1.0
1623778304.03125,0,0,5.406857730518914,0.0,1.0
1623778304.5,0,0,0.0,0.0,1.0
1623778304.96875,0,0,3.3703494230709237,0.0,1.0
1623778305.4375,0,0,0.0,0.0,1.0
1623778305.90625,0,0,3.61341678117043,0.0,1.0
1623778306.375,0,0,4.629032588133365,0.0,1.0
1623778306.84375,0,0,0.0,0.0,1.0
1623778307.3125,0,0,3.6513532949960004,0.0,1.0
1623778307.78125,0,0,0.0,0.0,1.0
1623778308.25,0,0,2.6398681998051323,0.0,1.0
1623778308.71875,0,0,4.115105913304529,0.0,1.0
1623778309.1875,0,0,3.2467004013827525,0.0,1.0
1623778309.65625,0,0,3.9134018928324608,0.0,1.0
1623778310.125,0,0,0.0,0.0,1.0
1623778310.59375,0,0,4.582646635991408,0.0,1.0
1623778311.0625,0,0,4.725146608597657,0.0,1.0
1623778311.53125,0,0,0.0,0.0,1.0
1623778312.0,0,0,6.4093993657075305,0.0,1.0
1623778312.46875,0,0,6.418223773048015,0.0,1.0
1623778312.9375,0,0,0.0,0.0,1.0
1623778313.40625,0,0,7.011875433335842,0.0,1.0
1623778313.875,0,0,0.0,0.0,1.0
1623778314.34375,0,0,6.4779527669182935,0.0,1.0
1623778314.8125,0,0,5.478997120406059,0.0,1.0
1623778315.28125,0,0,4.716977988447949,0.0,1.0
1623778315.75,0,0,6.931238511458811,0.0,1.0
1623778316.21875,0,0,0.0,0.0,1.0
1623778316.6875,0,0,5.555669249193967,0.0,1.0
1623778317.15625,0,0,0.0,0.0,1.0
1623778317.625,0,0,5.7587335519778815,0.0,1.0
1623778318.09375,0,0,4.362621111052072,0.0,1.0
1623778318.5625,0,0,4.515125276160625,0.0,1.0
1623778319.03125,0,0,0.0,0.0,1.0
1623778319.5,0,0,4.512902492040286,0.0,1.0
1623778319.96875,0,0,5.004405285681357,0.0,1.0
1623778320.4375,0,0,0.0,0.0,1.0
1623778320.90625,0,0,3.7913325531427624,0.0,1.0
1623778321.375,0,0,4.134820667150132,0.0,1.0
1623778321.84375,0,0,6.628595844761754,0.0,1.0
1623778322.3125,0,0,5.716636045365621,0.0,1.0
1623778322.78125,0,0,0.0,0.0,1.0
1623778323.25,0,0,4.9801061968353695,0.0,1.0
1623778323.71875,0,0,5.567647876040795,0.0,1.0
1623778324.1875,0,0,4.091619684719673,0.0,1.0
1623778324.65625,0,0,7.0835268695100915,0.0,1.0
1623778325.125,0,0,0.0,0.0,1.0
1623778325.59375,0,0,5.107719199546496,0.0,1.0
1623778326.0625,0,0,4.640327789644145,0.0,1.0
1623778326.53125,0,0,6.006211009452459,0.0,1.0
1623778327.0,0,0,6.058351937565481,0.0,1.0
1623778327.46875,0,0,0.0,0.0,1.0
1623778327.9375,0,0,5.184203001719351,0.0,1.0
1623778328.40625,0,0,0.0,0.0,1.0
1623778328.875,0,0,5.99015202558975,0.0,1.0
1623778329.34375,0,0,5.883574646534262,0.0,1.0
1623778329.8125,0,0,0.0,0.0,1.0
1623778330.28125,0,0,-3.619043973042011,0.0,1.0
1623778330.75,0,0,0.11137478661833079,0.0,1.0
1623778331.21875,0,0,68.63999243327099,0.0,1.0
1623778331.6875,0,0,47.55310214006677,0.0,1.0
1623778332.15625,0,0,82.55851353327537,0.0,1.0
1623778332.625,0,0,21.16085906782508,0.0,1.0
1623778333.09375,0,0,49.267980802180226,0.0,1.0
1623778333.5625,0,0,81.94371231293539,0.0,1.0
1623778334.03125,0,0,72.40970428292484,0.0,1.0
1623778334.5,0,0,-29.253278777405146,0.0,1.0
1623778334.96875,0,0,45.50635703141756,0.0,1.0
1623778335.4375,0,0,0.0,0.0,1.0
1623778335.90625,0,0,95.81617897633913,0.0,1.0
1623778336.375,0,0,-14.008187022379984,0.0,1.0
1623778336.84375,0,0,15.191635282125121,0.0,1.0
1623778337.3125,0,0,0.0,0.0,1.0
1623778337.78125,0,0,16.22470755501651,0.0,1.0
1623778338.25,0,0,16.116858417729603,0.0,1.0
1623778338.71875,0,0,0.0,0.0,1.0
1623778339.1875,0,0,15.19745357232906,0.0,1.0
1623778339.65625,0,0,0.0,0.0,1.0
1623778340.125,0,0,0.0,0.0,1.0
1623778340.59375,0,0,15.182226129006185,0.0,1.0
1623778341.0625,0,0,0.0,0.0,1.0
1623778341.53125,0,0,19.974248809328333,0.0,1.0
1623778342.0,0,0,8.87823612870052,0.0,1.0
1623778342.46875,0,0,6.023040988718014,0.0,1.0
1623778342.9375,0,0,12.51321686700515,0.0,1.0
1623778343.40625,0,0,11.218235871966135,0.0,1.0
1623778343.875,0,0,6.361831342265322,0.0,1.0
1623778344.34375,0,0,8.356961433885367,0.0,1.0
1623778344.8125,0,0,12.825220683283547,0.0,1.0
1623778345.28125,0,0,9.014984825181719,0.0,1.0
1623778345.75,0,0,13.01518368394886,0.0,1.0
1623778346.21875,0,0,15.569134181195567,0.0,1.0
1623778346.6875,0,0,19.599645181448352,0.0,1.0
1623778347.15625,0,0,16.56838083643615,0.0,1.0
1623778347.625,0,0,10.863728070155027,0.0,1.0
1623778348.09375,0,0,20.106604424663942,0.0,1.0
1623778348.5625,0,0,9.092307893201749,0.0,1.0
1623778349.03125,0,0,18.76604432467186,0.0,1.0
1623778349.5,0,0,0.0,0.0,1.0
1623778349.96875,0,0,9.843195018648798,0.0,1.0
1623778350.4375,0,0,0.0,0.0,1.0
1623778350.90625,0,0,0.0,0.0,1.0
1623778351.375,0,0,14.24550868601759,0.0,1.0
1623778351.84375,0,0,0.49720936257112625,0.0,1.0
1623778352.3125,0,0,12.87949577762927,0.0,1.0
1623778352.78125,0,0,5.593045812587547,0.0,1.0
1623778353.25,0,0,0.0,0.0,1.0
1623778353.71875,0,0,0.0,0.0,1.0
1623778354.1875,0,0,7.992015387272463,0.0,1.0
1623778354.65625,0,0,0.0,0.0,1.0
1623778355.125,0,0,7.8608251518758205,0.0,1.0
1623778355.59375,0,0,0.0,0.0,1.0
1623778356.0625,0,0,0.0,0.0,1.0
1623778356.53125,0,0,4.955752214286061,0.0,1.0
1623778357.0,0,0,4.767503515135583,0.0,1.0
1623778357.46875,0,0,7.211713602753906,0.0,1.0
1623778357.9375,0,0,0.0,0.0,1.0
1623778358.40625,0,0,6.238333142435646,0.0,1.0
1623778358.875,0,0,7.972733157104095,0.0,1.0
1623778359.34375,0,0,4.122358420509984,0.0,1.0
1623778359.8125,0,0,11.9809209347148,0.0,1.0
1623778360.28125,0,0,5.473221478709591,0.0,1.0
1623778360.75,0,0,0.0,0.0,1.0
1623778361.21875,0,0,7.314975067503812,0.0,1.0
1623778361.6875,0,0,7.371956251885064,0.0,1.0
1623778362.15625,0,0,0.0,0.0,1.0
1623778362.625,0,0,7.04255740088553,0.0,1.0
1623778363.09375,0,0,0.0,0.0,1.0
1623778363.5625,0,0,7.183549241062546,0.0,1.0
1623778364.03125,0,0,7.4208719349915695,0.0,1.0
1623778364.5,0,0,4.5175827572557115,0.0,1.0
1623778364.96875,0,0,7.033351520621033,0.0,1.0
1623778365.4375,0,0,0.0,0.0,1.0
1623778365.90625,0,0,8.448934194146123,0.0,1.0
1623778366.375,0,0,9.736166383705957,0.0,1.0
1623778366.84375,0,0,0.0,0.0,1.0
1623778367.3125,0,0,14.714455696014605,0.0,1.0
1623778367.78125,0,0,4.619742695396692,0.0,1.0
1623778368.25,0,0,2.8729566234014827,0.0,1.0
1623778368.71875,0,0,7.197750066527611,0.0,1.0
1623778369.1875,0,0,5.549425595471327,0.0,1.0
1623778369.65625,0,0,7.619432137526526,0.0,1.0
1623778370.125,0,0,0.0,0.0,1.0
1623778370.59375,0,0,6.289635620538227,0.0,1.0
1623778371.0625,0,0,5.490671082439366,0.0,1.0
1623778371.53125,0,0,4.2554916648341266,0.0,1.0
1623778372.0,0,0,6.248664712508096,0.0,1.0
1623778372.46875,0,0,2.8980066964498876,0.0,1.0
1623778372.9375,0,0,5.474809383762443,0.0,1.0
1623778373.40625,0,0,0.0,0.0,1.0
1623778373.875,0,0,6.83253886103535,0.0,1.0
1623778374.34375,0,0,5.657607731849155,0.0,1.0
1623778374.8125,0,0,3.5345053784074323,0.0,1.0
1623778375.28125,0,0,5.758492904724987,0.0,1.0
1623778375.75,0,0,4.258055189561255,0.0,1.0
1623778376.21875,0,0,6.462416528228324,0.0,1.0
1623778376.6875,0,0,6.818579507808874,0.0,1.0
1623778377.15625,0,0,0.0,0.0,1.0
1623778377.625,0,0,5.79529688843779,0.0,1.0
1623778378.09375,0,0,0.0,0.0,1.0
1623778378.5625,0,0,5.277806692314354,0.0,1.0
1623778379.03125,0,0,0.0,0.0,1.0
1623778379.5,0,0,0.0,0.0,1.0
1623778379.96875,0,0,0.0,0.0,1.0
1623778380.4375,0,0,0.0,0.0,1.0
1623778380.90625,0,0,6.696694118139546,0.0,1.0
1623778381.375,0,0,0.0,0.0,1.0
1623778381.84375,0,0,4.828993501023977,0.0,1.0
1623778382.3125,0,0,0.0,0.0,1.0
1623778382.78125,0,0,5.862233070451662,0.0,1.0
1623778383.25,0,0,4.473850235261267,0.0,1.0
1623778383.71875,0,0,4.2234321932816234,0.0,1.0
1623778384.1875,0,0,3.7742835374519346,0.0,1.0
1623778384.65625,0,0,3.2573540082770185,0.0,1.0
1623778385.125,0,0,4.795616298926939,0.0,1.0
1623778385.59375,0,0,3.6115550984363334,0.0,1.0
1623778386.0625,0,0,5.856076711096013,0.0,1.0
1623778386.53125,0,0,0.0,0.0,1.0
1623778387.0,0,0,6.943518589262777,0.0,1.0
1623778387.46875,0,0,14.905787207597049,0.0,1.0
1623778387.9375,0,0,0.0,0.0,1.0
1623778388.40625,0,0,5.618285693313233,0.0,1.0
1623778388.875,0,0,6.799581067997365,0.0,1.0
1623778389.34375,0,0,5.008393595359005,0.0,1.0
1623778389.8125,0,0,7.60583858964609,0.0,1.0
1623778390.28125,0,0,0.0,0.0,1.0
1623778390.75,0,0,6.677772683990576,0.0,1.0
1623778391.21875,0,0,7.028660016979291,0.0,1.0
1623778391.6875,0,0,4.389826976203734,0.0,1.0
1623778392.15625,0,0,8.306580692016574,0.0,1.0
1623778392.625,0,0,0.0,0.0,1.0
1623778393.09375,0,0,7.7455943218730265,0.0,1.0
1623778393.5625,0,0,10.27191140352235,0.0,1.0
1623778394.03125,0,0,0.0,0.0,1.0
1623778394.5,0,0,17.02984463873982,0.0,1.0
1623778394.96875,0,0,0.0,0.0,1.0
1623778395.4375,0,0,0.0,0.0,1.0
1623778395.90625,0,0,7.028803004426784,0.0,1.0
1623778396.375,0,0,0.0,0.0,1.0
1623778396.84375,0,0,0.0,0.0,1.0
1623778397.3125,0,0,6.066059043756571,0.0,1.0
1623778397.78125,0,0,0.0,0.0,1.0
1623778398.25,0,0,6.660131450316608,0.0,1.0
1623778398.71875,0,0,4.821965971450689,0.0,1.0
1623778399.1875,0,0,2.660076124111364,0.0,1.0
1623778399.65625,0,0,5.708750405740128,0.0,1.0
1623778400.125,0,0,6.4423103258336445,0.0,1.0
1623778400.59375,0,0,0.0,0.0,1.0
1623778401.0625,0,0,5.897192656732717,0.0,1.0
1623778401.53125,0,0,4.798461020079528,0.0,1.0
1623778402.0,0,0,0.0,0.0,1.0
1623778402.46875,0,0,5.754777705490251,0.0,1.0
1623778402.9375,0,0,4.070101386625483,0.0,1.0
1623778403.40625,0,0,0.0,0.0,1.0
1623778403.875,0,0,3.8508989960924738,0.0,1.0
1623778404.34375,0,0,4.6151688199577485,0.0,1.0
1623778404.8125,0,0,0.0,0.0,1.0
1623778405.28125,0,0,5.242260550840982,0.0,1.0
1623778405.75,0,0,0.0,0.0,1.0
1623778406.21875,0,0,13.051623075872442,0.0,1.0
1623778406.6875,0,0,1.9329047860233322,0.0,1.0
1623778407.15625,0,0,3.5949815445679723,0.0,1.0
1623778407.625,0,0,1.531206034131689,0.0,1.0
1623778408.09375,0,0,5.812476430409971,0.0,1.0
1623778408.5625,0,0,2.2397348908819796,0.0,1.0
1623778409.03125,0,0,2.9606188686530426,0.0,1.0
1623778409.5,0,0,2.1295953728315817,0.0,1.0
1623778409.96875,0,0,0.0,0.0,1.0
1623778410.4375,0,0,3.40322720996342,0.0,1.0
1623778410.90625,0,0,2.856093786308566,0.0,1.0
1623778411.375,0,0,4.144918963630507,0.0,1.0
1623778411.84375,0,0,1.9530501485553127,0.0,1.0
1623778412.3125,0,0,3.6716490127208212,0.0,1.0
1623778412.78125,0,0,4.649346106696683,0.0,1.0
1623778413.25,0,0,0.0,0.0,1.0
1623778413.71875,0,0,4.675968652872936,0.0,1.0
1623778414.1875,0,0,3.7935217484675117,0.0,1.0
1623778414.65625,0,0,0.0,0.0,1.0
1623778415.125,0,0,6.320009301662705,0.0,1.0
1623778415.59375,0,0,3.95470127927592,0.0,1.0
1623778416.0625,0,0,0.0,0.0,1.0
1623778416.53125,0,0,4.507282117994312,0.0,1.0
1623778417.0,0,0,5.269203851693199,0.0,1.0
1623778417.46875,0,0,0.0,0.0,1.0
1623778417.9375,0,0,6.069005602930002,0.0,1.0
1623778418.40625,0,0,15.637852744364531,0.0,1.0
1623778418.875,0,0,0.0,0.0,1.0
1623778419.34375,0,0,3.009588420546215,0.0,1.0
1623778419.8125,0,0,3.4741235649871607,0.0,1.0
1623778420.28125,0,0,0.0,0.0,1.0
1623778420.75,0,0,5.673164645673581,0.0,1.0
1623778421.21875,0,0,4.65515927952403,0.0,1.0
1623778421.6875,0,0,0.0,0.0,1.0
1623778422.15625,0,0,2.573726330705726,0.0,1.0
1623778422.625,0,0,3.2943327046242614,0.0,1.0
1623778423.09375,0,0,0.0,0.0,1.0
1623778423.5625,0,0,3.3247887996701,0.0,1.0
1623778424.03125,0,0,2.467786818982608,0.0,1.0
1623778424.5,0,0,5.727157460271735,0.0,1.0
1623778424.96875,0,0,2.1214210374135014,0.0,1.0
1623778425.4375,0,0,3.3776748555756586,0.0,1.0
1623778425.90625,0,0,0.0,0.0,1.0
1623778426.375,0,0,6.045335547118387,0.0,1.0
1623778426.84375,0,0,5.086280984900947,0.0,1.0
1623778427.3125,0,0,6.977918814884918,0.0,1.0
1623778427.78125,0,0,1.243706046238192,0.0,1.0
1623778428.25,0,0,8.951589128348223,0.0,1.0
1623778428.71875,0,0,5.859419626344735,0.0,1.0
1623778429.1875,0,0,0.0,0.0,1.0
1623778429.65625,0,0,6.639748973528997,0.0,1.0
1623778430.125,0,0,0.0,0.0,1.0
1623778430.59375,0,0,4.440739337094076,0.0,1.0
1623778431.0625,0,0,6.3123461893047415,0.0,1.0
1623778431.53125,0,0,0.0,0.0,1.0
1623778432.0,0,0,6.739823919622738,0.0,1.0
1623778432.46875,0,0,6.525104341845738,0.0,1.0
1623778432.9375,0,0,0.0,0.0,1.0
1623778433.40625,0,0,5.872076052032755,0.0,1.0
1623778433.875,0,0,5.983059653018632,0.0,1.0
1623778434.34375,0,0,4.250388269636219,0.0,1.0
1623778434.8125,0,0,6.871914486564831,0.0,1.0
1623778435.28125,0,0,7.113567776481314,0.0,1.0
1623778435.75,0,0,0.0,0.0,1.0
1623778436.21875,0,0,7.165805539622436,0.0,1.0
1623778436.6875,0,0,6.256248356832488,0.0,1.0
1623778437.15625,0,0,0.0,0.0,1.0
1623778437.625,0,0,3.573674693111198,0.0,1.0
1623778438.09375,0,0,0.0,0.0,1.0
1623778438.5625,0,0,7.168711685579076,0.0,1.0
1623778439.03125,0,0,5.540671792732679,0.0,1.0
1623778439.5,0,0,0.0,0.0,1.0
1623778439.96875,0,0,2.7088835478740703,0.0,1.0
1623778440.4375,0,0,0.0,0.0,1.0
1623778440.90625,0,0,63.97403222161397,0.0,1.0
1623778441.375,0,0,123.18124374008205,0.0,1.0
1623778441.84375,0,0,3.0002510508555047,0.0,1.0
1623778442.3125,0,0,26.808772807707825,0.0,1.0
1623778442.78125,0,0,131.37583884672375,0.0,1.0
1623778443.25,0,0,29.853482927764343,0.0,1.0
1623778443.71875,0,0,0.0,0.0,1.0
1623778444.1875,0,0,5.286343639694475,0.0,1.0
1623778444.65625,0,0,7.371145158739533,0.0,1.0
1623778445.125,0,0,52.94852676629844,0.0,1.0
1623778445.59375,0,0,212.83044823868175,0.0,1.0
1623778446.0625,0,0,20.704975357188363,0.0,1.0
1623778446.53125,0,0,2.275464381981571,0.0,1.0
1623778447.0,0,0,0.0,0.0,1.0
1623778447.46875,0,0,41.598467087583515,0.0,1.0
1623778447.9375,0,0,38.14628751415043,0.0,1.0
1623778448.40625,0,0,17.807770339212567,0.0,1.0
1623778448.875,0,0,3.146812172711976,0.0,1.0
1623778449.34375,0,0,7.901136792275585,0.0,1.0
1623778449.8125,0,0,0.0,0.0,1.0
1623778450.28125,0,0,7.011818904911157,0.0,1.0
1623778450.75,0,0,4.64100727671681,0.0,1.0
1623778451.21875,0,0,0.0,0.0,1.0
1623778451.6875,0,0,2.1495607887444366,0.0,1.0
1623778452.15625,0,0,1.9582417487561103,0.0,1.0
1623778452.625,0,0,2.006206108124378,0.0,1.0
1623778453.09375,0,0,3.585138910499022,0.0,1.0
1623778453.5625,0,0,-0.9993030188645795,0.0,1.0
1623778454.03125,0,0,4.010490485630645,0.0,1.0
1623778454.5,0,0,0.0,0.0,1.0
1623778454.96875,0,0,3.882071889240515,0.0,1.0
1623778455.4375,0,0,5.433696245746274,0.0,1.0
1623778455.90625,0,0,3.8603179045754987,0.0,1.0
1623778456.375,0,0,4.4445638557571785,0.0,1.0
1623778456.84375,0,0,0.0,0.0,1.0
1623778457.3125,0,0,5.123026761564113,0.0,1.0
1623778457.78125,0,0,0.0,0.0,1.0
1623778458.25,0,0,4.644627594898454,0.0,1.0
1623778458.71875,0,0,5.511285310252683,0.0,1.0
1623778459.1875,0,0,4.127208593722995,0.0,1.0
1623778459.65625,0,0,5.488232401157111,0.0,1.0
1623778460.125,0,0,4.291278939455403,0.0,1.0
1623778460.59375,0,0,5.154923695342951,0.0,1.0
1623778461.0625,0,0,0.0,0.0,1.0
1623778461.53125,0,0,7.6791430950688895,0.0,1.0
1623778462.0,0,0,0.0,0.0,1.0
1623778462.46875,0,0,5.464063507312754,0.0,1.0
1623778462.9375,0,0,7.187047380720513,0.0,1.0
1623778463.40625,0,0,3.941150793282672,0.0,1.0
1623778463.875,0,0,7.821962775501927,0.0,1.0
1623778464.34375,0,0,0.0,0.0,1.0
1623778464.8125,0,0,10.332289703573895,0.0,1.0
1623778465.28125,0,0,0.0,0.0,1.0
1623778465.75,0,0,8.650271913427618,0.0,1.0
1623778466.21875,0,0,0.0,0.0,1.0
1623778466.6875,0,0,10.690564021721297,0.0,1.0
1623778467.15625,0,0,0.0,0.0,1.0
1623778467.625,0,0,10.038317299425055,0.0,1.0
1623778468.09375,0,0,6.522011956242468,0.0,1.0
1623778468.5625,0,0,0.5057700798477772,0.0,1.0
1623778469.03125,0,0,9.849726229304022,0.0,1.0
1623778469.5,0,0,0.0,0.0,1.0
1623778469.96875,0,0,7.0122511559371254,0.0,1.0
1623778470.4375,0,0,4.945362748413748,0.0,1.0
1623778470.90625,0,0,3.8933892317003416,0.0,1.0
1623778471.375,0,0,8.500644232917386,0.0,1.0
1623778471.84375,0,0,0.0,0.0,1.0
1623778472.3125,0,0,7.495012554194008,0.0,1.0
1623778472.78125,0,0,6.895649463572694,0.0,1.0
1623778473.25,0,0,0.0,0.0,1.0
1623778473.71875,0,0,0.0,0.0,1.0
1623778474.1875,0,0,7.0825459966204845,0.0,1.0
1623778474.65625,0,0,0.0,0.0,1.0
1623778475.125,0,0,0.0,0.0,1.0
1623778475.59375,0,0,5.005555478259964,0.0,1.0
1623778476.0625,0,0,0.0,0.0,1.0
1623778476.53125,0,0,-0.01689243385629143,0.0,1.0
1623778477.0,0,0,3.9371980808777693,0.0,1.0
1623778477.46875,0,0,0.0,0.0,1.0
1623778477.9375,0,0,4.302768880575759,0.0,1.0
1623778478.40625,0,0,2.644764515415902,0.0,1.0
1623778478.875,0,0,1.8225988053880633,0.0,1.0
1623778479.34375,0,0,4.271057616314988,0.0,1.0
1623778479.8125,0,0,4.309621146141194,0.0,1.0
1623778480.28125,0,0,0.0,0.0,1.0
1623778480.75,0,0,7.603188998685632,0.0,1.0
1623778481.21875,0,0,4.821714878014191,0.0,1.0
1623778481.6875,0,0,0.0,0.0,1.0
1623778482.15625,0,0,4.466075409761016,0.0,1.0
1623778482.625,0,0,0.0,0.0,1.0
1623778483.09375,0,0,6.621758722003482,0.0,1.0
1623778483.5625,0,0,3.1094760405548527,0.0,1.0
1623778484.03125,0,0,6.07150725104592,0.0,1.0
1623778484.5,0,0,0.0,0.0,1.0
1623778484.96875,0,0,5.9295441484761815,0.0,1.0
1623778485.4375,0,0,3.116180869149245,0.0,1.0
1623778485.90625,0,0,1.9626626482580778,0.0,1.0
1623778486.375,0,0,4.58346872719653,0.0,1.0
1623778486.84375,0,0,2.1820283366958364,0.0,1.0
1623778487.3125,0,0,3.9468917994396877,0.0,1.0
1623778487.78125,0,0,3.073328742891256,0.0,1.0
1623778488.25,0,0,0.0,0.0,1.0
1623778488.71875,0,0,5.738468725839924,0.0,1.0
1623778489.1875,0,0,4.271647993307684,0.0,1.0
1623778489.65625,0,0,0.0,0.0,1.0
1623778490.125,0,0,5.053836046568158,0.0,1.0
1623778490.59375,0,0,6.767726914817483,0.0,1.0
1623778491.0625,0,0,2.121941235523754,0.0,1.0
1623778491.53125,0,0,0.6260626873954873,0.0,1.0
1623778492.0,0,0,2.8824579348121757,0.0,1.0
1623778492.46875,0,0,0.0,0.0,1.0
1623778492.9375,0,0,0.0,0.0,1.0
1623778493.40625,0,0,3.5984606484752595,0.0,1.0
1623778493.875,0,0,0.4910519575244054,0.0,1.0
1623778494.34375,0,0,4.698817035380733,0.0,1.0
1623778494.8125,0,0,6.373298018721488,0.0,1.0
1623778495.28125,0,0,4.070413027212583,0.0,1.0
1623778495.75,0,0,1.6344755485643676,0.0,1.0
1623778496.21875,0,0,6.9386319850519085,0.0,1.0
1623778496.6875,0,0,0.0,0.0,1.0
1623778497.15625,0,0,3.401106637591524,0.0,1.0
1623778497.625,0,0,1.2467425559151208,0.0,1.0
1623778498.09375,0,0,3.0184751847540308,0.0,1.0
1623778498.5625,0,0,2.0387601246754667,0.0,1.0
1623778499.03125,0,0,3.7620831554046443,0.0,1.0
1623778499.5,0,0,0.0,0.0,1.0
1623778499.96875,0,0,4.423021028676706,0.0,1.0
1623778500.4375,0,0,4.674373088609122,0.0,1.0
1623778500.90625,0,0,0.0,0.0,1.0
1623778501.375,0,0,4.543003499446824,0.0,1.0
1623778501.84375,0,0,4.955571122507468,0.0,1.0
1623778502.3125,0,0,0.0,0.0,1.0
1623778502.78125,0,0,7.596505064032649,0.0,1.0
1623778503.25,0,0,2.2944413194155295,0.0,1.0
1623778503.71875,0,0,2.4134226293121563,0.0,1.0
1623778504.1875,0,0,4.398908879540479,0.0,1.0
1623778504.65625,0,0,5.648812581062193,0.0,1.0
1623778505.125,0,0,0.0,0.0,1.0
1623778505.59375,0,0,4.448149390536735,0.0,1.0
1623778506.0625,0,0,3.3997463059546797,0.0,1.0
1623778506.53125,0,0,1.6604888475012407,0.0,1.0
1623778507.0,0,0,4.694506780264226,0.0,1.0
1623778507.46875,0,0,4.28941450605056,0.0,1.0
1623778507.9375,0,0,0.0,0.0,1.0
1623778508.40625,0,0,0.0,0.0,1.0
1623778508.875,0,0,5.340502636417571,0.0,1.0
1623778509.34375,0,0,0.0,0.0,1.0
1623778509.8125,0,0,3.253943768608058,0.0,1.0
1623778510.28125,0,0,5.083952201501269,0.0,1.0
1623778510.75,0,0,0.0,0.0,1.0
1623778511.21875,0,0,4.7459746089344765,0.0,1.0
1623778511.6875,0,0,3.342546366825955,0.0,1.0
1623778512.15625,0,0,0.0,0.0,1.0
1623778512.625,0,0,2.4405436327958605,0.0,1.0
1623778513.09375,0,0,5.744958080781834,0.0,1.0
1623778513.5625,0,0,11.33569547502387,0.0,1.0
1623778514.03125,0,0,0.0,0.0,1.0
1623778514.5,0,0,23.779065903992972,0.0,1.0
1623778514.96875,0,0,251.64750392811604,0.0,1.0
1623778515.4375,0,0,13.511824228788798,0.0,1.0
1623778515.90625,0,0,48.228221241237875,0.0,1.0
1623778516.375,0,0,46.875873594906146,0.0,1.0
1623778516.84375,0,0,160.65112965704373,0.0,1.0
1623778517.3125,0,0,-14.412296121554661,0.0,1.0
1623778517.78125,0,0,77.35117211440702,0.0,1.0
1623778518.25,0,0,63.044907879719005,0.0,1.0
1623778518.71875,0,0,50.75353717187852,0.0,1.0
1623778519.1875,0,0,0.0,0.0,1.0
1623778519.65625,0,0,78.49617380976674,0.0,1.0
1623778520.125,0,0,0.0,0.0,1.0
1623778520.59375,0,0,267.54025429133407,0.0,1.0
1623778521.0625,0,0,0.0,0.0,1.0
1623778521.53125,0,0,0.0,0.0,1.0
1623778522.0,0,0,203.3700887682375,0.0,1.0
1623778522.46875,0,0,121.3090259602238,0.0,1.0
1623778522.9375,0,0,48.35454700353445,0.0,1.0
1623778523.40625,0,0,0.0,0.0,1.0
1623778523.875,0,0,64.4496631162371,0.0,1.0
1623778524.34375,0,0,9.515842147319402,0.0,1.0
1623778524.8125,0,0,9.455215749409467,0.0,1.0
1623778525.28125,0,0,15.020125798549309,0.0,1.0
1623778525.75,0,0,1.1214404679482806,0.0,1.0
1623778526.21875,0,0,0.0,0.0,1.0
1623778526.6875,0,0,5.526380453975284,0.0,1.0
1623778527.15625,0,0,5.669789560519192,0.0,1.0
1623778527.625,0,0,6.397988020521696,0.0,1.0
1623778528.09375,0,0,0.0,0.0,1.0
1623778528.5625,0,0,7.410708309579122,0.0,1.0
1623778529.03125,0,0,5.83914348213951,0.0,1.0
1623778529.5,0,0,4.818629330528804,0.0,1.0
1623778529.96875,0,0,4.800714996526081,0.0,1.0
1623778530.4375,0,0,4.267516922247793,0.0,1.0
1623778530.90625,0,0,3.4764859436336746,0.0,1.0
1623778531.375,0,0,4.39053788683096,0.0,1.0
1623778531.84375,0,0,4.663494159163685,0.0,1.0
1623778532.3125,0,0,2.429057191363942,0.0,1.0
1623778532.78125,0,0,6.128159397949795,0.0,1.0
1623778533.25,0,0,5.056523409184208,0.0,1.0
1623778533.71875,0,0,0.0,0.0,1.0
1623778534.1875,0,0,14.06305723757568,0.0,1.0
1623778534.65625,0,0,0.0,0.0,1.0
1623778535.125,0,0,6.0337369570574335,0.0,1.0
1623778535.59375,0,0,6.490642907922734,0.0,1.0
1623778536.0625,0,0,0.0,0.0,1.0
1623778536.53125,0,0,6.29356091266542,0.0,1.0
1623778537.0,0,0,0.0,0.0,1.0
1623778537.46875,0,0,8.051204497553858,0.0,1.0
1623778537.9375,0,0,11.98710302878634,0.0,1.0
1623778538.40625,0,0,0.0,0.0,1.0
1623778538.875,0,0,6.660224111233497,0.0,1.0
1623778539.34375,0,0,0.0,0.0,1.0
1623778539.8125,0,0,7.151415651901469,0.0,1.0
1623778540.28125,0,0,7.322260040023365,0.0,1.0
1623778540.75,0,0,0.0,0.0,1.0
1623778541.21875,0,0,4.661822588880829,0.0,1.0
1623778541.6875,0,0,4.3305882125742805,0.0,1.0
1623778542.15625,0,0,7.967477908400798,0.0,1.0
1623778542.625,0,0,0.0,0.0,1.0
1623778543.09375,0,0,3.2100590964978997,0.0,1.0
1623778543.5625,0,0,5.02152189985124,0.0,1.0
1623778544.03125,0,0,6.268398152709227,0.0,1.0
1623778544.5,0,0,7.858981135434515,0.0,1.0
1623778544.96875,0,0,0.0,0.0,1.0
1623778545.4375,0,0,10.028622320105129,0.0,1.0
1623778545.90625,0,0,9.653715655767055,0.0,1.0
1623778546.375,0,0,0.0,0.0,1.0
1623778546.84375,0,0,8.141985636118354,0.0,1.0
1623778547.3125,0,0,5.257373092457143,0.0,1.0
1623778547.78125,0,0,6.913909454977272,0.0,1.0
1623778548.25,0,0,0.0,0.0,1.0
1623778548.71875,0,0,10.619880796728033,0.0,1.0
1623778549.1875,0,0,9.201752407794348,0.0,1.0
1623778549.65625,0,0,0.0,0.0,1.0
1623778550.125,0,0,11.23709480282298,0.0,1.0
1623778550.59375,0,0,0.0,0.0,1.0
1623778551.0625,0,0,11.087948357062446,0.0,1.0
1623778551.53125,0,0,8.621445585469548,0.0,1.0
1623778552.0,0,0,6.690377794924446,0.0,1.0
1623778552.46875,0,0,11.792520459794195,0.0,1.0
1623778552.9375,0,0,0.0,0.0,1.0
1623778553.40625,0,0,11.68323585076323,0.0,1.0
1623778553.875,0,0,0.0,0.0,1.0
1623778554.34375,0,0,0.0,0.0,1.0
1623778554.8125,0,0,10.281073770064282,0.0,1.0
1623778555.28125,0,0,6.3575561233037705,0.0,1.0
1623778555.75,0,0,10.231986061366884,0.0,1.0
1623778556.21875,0,0,0.0,0.0,1.0
1623778556.6875,0,0,9.539522231774288,0.0,1.0
1623778557.15625,0,0,0.0,0.0,1.0
1623778557.625,0,0,9.593760294461466,0.0,1.0
1623778558.09375,0,0,11.037155977788139,0.0,1.0
1623778558.5625,0,0,0.0,0.0,1.0
1623778559.03125,0,0,11.941199638492899,0.0,1.0
1623778559.5,0,0,7.680343411014421,0.0,1.0
1623778559.96875,0,0,13.349505838157471,0.0,1.0
1623778560.4375,0,0,0.0,0.0,1.0
1623778560.90625,0,0,7.5191049960694345,0.0,1.0
1623778561.375,0,0,9.375076933396278,0.0,1.0
1623778561.84375,0,0,6.783468059379566,0.0,1.0
1623778562.3125,0,0,11.946620996372292,0.0,1.0
1623778562.78125,0,0,0.0,0.0,1.0
1623778563.25,0,0,8.512270286677333,0.0,1.0
1623778563.71875,0,0,10.158667628824151,0.0,1.0
1623778564.1875,0,0,5.122559639356209,0.0,1.0
1623778564.65625,0,0,9.380393189425066,0.0,1.0
1623778565.125,0,0,0.0,0.0,1.0
1623778565.59375,0,0,9.972174359356389,0.0,1.0
1623778566.0625,0,0,0.0,0.0,1.0
1623778566.53125,0,0,0.0,0.0,1.0
1623778567.0,0,0,6.551802743135755,0.0,1.0
1623778567.46875,0,0,0.0,0.0,1.0
1623778567.9375,0,0,9.756996466203788,0.0,1.0
1623778568.40625,0,0,0.0,0.0,1.0
1623778568.875,0,0,5.2405722584091805,0.0,1.0
1623778569.34375,0,0,0.0,0.0,1.0
1623778569.8125,0,0,7.011821302151713,0.0,1.0
1623778570.28125,0,0,7.449673457616522,0.0,1.0
1623778570.75,0,0,0.0,0.0,1.0
1623778571.21875,0,0,0.2713623645669527,0.0,1.0
1623778571.6875,0,0,-1.2852866101056737,0.0,1.0
1623778572.15625,0,0,71.68055314833126,0.0,1.0
1623778572.625,0,0,73.33423716253876,0.0,1.0
1623778573.09375,0,0,70.59211954649179,0.0,1.0
1623778573.5625,0,0,-13.588624492669647,0.0,1.0
1623778574.03125,0,0,183.15512947955452,0.0,1.0
1623778574.5,0,0,154.13932120505123,0.0,1.0
1623778574.96875,0,0,147.95534405528917,0.0,1.0
1623778575.4375,0,0,289.3441612717442,0.0,1.0
1623778575.90625,0,0,64.42913701870008,0.0,1.0
1623778576.375,0,0,123.33420923354603,0.0,1.0
1623778576.84375,0,0,-33.871467414461755,0.0,1.0
1623778577.3125,0,0,0.0,0.0,1.0
1623778577.78125,0,0,0.0,0.0,1.0
1623778578.25,0,0,0.0,0.0,1.0
1623778578.71875,0,0,15.334775017007262,0.0,1.0
1623778579.1875,0,0,20.445614507902597,0.0,1.0
1623778579.65625,0,0,2.5445302904694738,0.0,1.0
1623778580.125,0,0,0.0,0.0,1.0
1623778580.59375,0,0,5.28336981305727,0.0,1.0
1623778581.0625,0,0,0.0,0.0,1.0
1623778581.53125,0,0,0.0,0.0,1.0
1623778582.0,0,0,8.445824660733534,0.0,1.0
1623778582.46875,0,0,0.0,0.0,1.0
1623778582.9375,0,0,9.121834593440138,0.0,1.0
1623778583.40625,0,0,8.893179292135809,0.0,1.0
1623778583.875,0,0,0.0,0.0,1.0
1623778584.34375,0,0,6.571772806914174,0.0,1.0
1623778584.8125,0,0,10.66355662774394,0.0,1.0
1623778585.28125,0,0,0.0,0.0,1.0
1623778585.75,0,0,13.725956290870172,0.0,1.0
1623778586.21875,0,0,0.0,0.0,1.0
1623778586.6875,0,0,12.97334900578523,0.0,1.0
1623778587.15625,0,0,3.9661917643426943,0.0,1.0
1623778587.625,0,0,2.556588196614019,0.0,1.0
1623778588.09375,0,0,16.75016762059665,0.0,1.0
1623778588.5625,0,0,0.0,0.0,1.0
1623778589.03125,0,0,5.4793507957167025,0.0,1.0
1623778589.5,0,0,10.370751414391995,0.0,1.0
1623778589.96875,0,0,0.0,0.0,1.0
1623778590.4375,0,0,5.615009965270646,0.0,1.0
1623778590.90625,0,0,9.849643763015434,0.0,1.0
1623778591.375,0,0,4.03804107103369,0.0,1.0
1623778591.84375,0,0,7.542405569627903,0.0,1.0
1623778592.3125,0,0,4.846845783667611,0.0,1.0
1623778592.78125,0,0,3.8957315411465983,0.0,1.0
1623778593.25,0,0,5.343802253682562,0.0,1.0
1623778593.71875,0,0,5.7798570178536846,0.0,1.0
1623778594.1875,0,0,0.0,0.0,1.0
1623778594.65625,0,0,5.711728557106545,0.0,1.0
1623778595.125,0,0,6.295184067875925,0.0,1.0
1623778595.59375,0,0,0.0,0.0,1.0
1623778596.0625,0,0,6.935022434964848,0.0,1.0
1623778596.53125,0,0,0.0,0.0,1.0
1623778597.0,0,0,4.121928323101915,0.0,1.0
1623778597.46875,0,0,0.0,0.0,1.0
1623778597.9375,0,0,0.0,0.0,1.0
1623778598.40625,0,0,0.0,0.0,1.0
1623778598.875,0,0,9.402971050307084,0.0,1.0
1623778599.34375,0,0,4.739341734168648,0.0,1.0
1623778599.8125,0,0,0.0,0.0,1.0
1623778600.28125,0,0,6.587367617714517,0.0,1.0
1623778600.75,0,0,0.0,0.0,1.0
1623778601.21875,0,0,6.875610332485897,0.0,1.0
1623778601.6875,0,0,5.408515888553995,0.0,1.0
1623778602.15625,0,0,0.0,0.0,1.0
1623778602.625,0,0,5.163842617666606,0.0,1.0
1623778603.09375,0,0,0.0,0.0,1.0
1623778603.5625,0,0,7.246468702117641,0.0,1.0
1623778604.03125,0,0,6.850658135890152,0.0,1.0
1623778604.5,0,0,0.0,0.0,1.0
1623778604.96875,0,0,7.894222466326721,0.0,1.0
1623778605.4375,0,0,0.0,0.0,1.0
1623778605.90625,0,0,6.834156626256659,0.0,1.0
1623778606.375,0,0,6.926281386938475,0.0,1.0
1623778606.84375,0,0,0.0,0.0,1.0
1623778607.3125,0,0,6.955929516490721,0.0,1.0
1623778607.78125,0,0,0.0,0.0,1.0
1623778608.25,0,0,6.898063858743324,0.0,1.0
1623778608.71875,0,0,5.233967539758943,0.0,1.0
1623778609.1875,0,0,5.233626843059046,0.0,1.0
1623778609.65625,0,0,6.7477295835083355,0.0,1.0
1623778610.125,0,0,0.0,0.0,1.0
1623778610.59375,0,0,6.474507791135201,0.0,1.0
1623778611.0625,0,0,0.0,0.0,1.0
1623778611.53125,0,0,6.4663835023551375,0.0,1.0
1623778612.0,0,0,5.202061999892057,0.0,1.0
1623778612.46875,0,0,0.0,0.0,1.0
1623778612.9375,0,0,5.65522376931823,0.0,1.0
1623778613.40625,0,0,0.0,0.0,1.0
1623778613.875,0,0,6.469771884883552,0.0,1.0
1623778614.34375,0,0,4.0433816742698685,0.0,1.0
1623778614.8125,0,0,5.98757289676332,0.0,1.0
1623778615.28125,0,0,6.14156341077863,0.0,1.0
1623778615.75,0,0,0.0,0.0,1.0
1623778616.21875,0,0,4.608999839288188,0.0,1.0
1623778616.6875,0,0,0.0,0.0,1.0
1623778617.15625,0,0,0.0,0.0,1.0
1623778617.625,0,0,4.7326078072452145,0.0,1.0
1623778618.09375,0,0,0.0,0.0,1.0
1623778618.5625,0,0,5.110682682811521,0.0,1.0
1623778619.03125,0,0,4.926285754776563,0.0,1.0
1623778619.5,0,0,3.2053625981647538,0.0,1.0
1623778619.96875,0,0,4.22181158732482,0.0,1.0
1623778620.4375,0,0,0.0,0.0,1.0
1623778620.90625,0,0,5.408946423329047,0.0,1.0
1623778621.375,0,0,6.200308955741764,0.0,1.0
1623778621.84375,0,0,0.0,0.0,1.0
1623778622.3125,0,0,12.51135725106755,0.0,1.0
1623778622.78125,0,0,0.0,0.0,1.0
1623778623.25,0,0,3.6939297913704876,0.0,1.0
1623778623.71875,0,0,5.958581696536256,0.0,1.0
1623778624.1875,0,0,4.86458551468552,0.0,1.0
1623778624.65625,0,0,6.538118508731356,0.0,1.0
1623778625.125,0,0,0.0,0.0,1.0
1623778625.59375,0,0,5.743081121912919,0.0,1.0
1623778626.0625,0,0,6.6178730386871125,0.0,1.0
1623778626.53125,0,0,0.0,0.0,1.0
1623778627.0,0,0,6.02850243189295,0.0,1.0
1623778627.46875,0,0,8.160045960782572,0.0,1.0
1623778627.9375,0,0,6.722748145937227,0.0,1.0
1623778628.40625,0,0,8.04430392173732,0.0,1.0
1623778628.875,0,0,0.0,0.0,1.0
1623778629.34375,0,0,8.750899302479464,0.0,1.0
1623778629.8125,0,0,9.447319894209103,0.0,1.0
1623778630.28125,0,0,7.384840153612402,0.0,1.0
1623778630.75,0,0,9.699950181007866,0.0,1.0
1623778631.21875,0,0,8.71465570177788,0.0,1.0
1623778631.6875,0,0,10.637483916650343,0.0,1.0
1623778632.15625,0,0,6.955846684663778,0.0,1.0
1623778632.625,0,0,9.520419849551466,0.0,1.0
1623778633.09375,0,0,0.0,0.0,1.0
1623778633.5625,0,0,9.086506600781924,0.0,1.0
1623778634.03125,0,0,9.766171240515988,0.0,1.0
1623778634.5,0,0,0.0,0.0,1.0
1623778634.96875,0,0,10.13005404986198,0.0,1.0
1623778635.4375,0,0,0.0,0.0,1.0
1623778635.90625,0,0,8.898377679857067,0.0,1.0
1623778636.375,0,0,0.0,0.0,1.0
1623778636.84375,0,0,5.958273739073751,0.0,1.0
1623778637.3125,0,0,9.605513828449661,0.0,1.0
1623778637.78125,0,0,0.0,0.0,1.0
1623778638.25,0,0,9.52676296852256,0.0,1.0
1623778638.71875,0,0,0.0,0.0,1.0
1623778639.1875,0,0,10.11936169515464,0.0,1.0
1623778639.65625,0,0,5.958180214042612,0.0,1.0
1623778640.125,0,0,8.029271350433115,0.0,1.0
1623778640.59375,0,0,7.457074744766069,0.0,1.0
1623778641.0625,0,0,0.0,0.0,1.0
1623778641.53125,0,0,8.917388562190526,0.0,1.0
1623778642.0,0,0,9.230652051579494,0.0,1.0
1623778642.46875,0,0,1.3536686825819126,0.0,1.0
1623778642.9375,0,0,8.856941416220312,0.0,1.0
1623778643.40625,0,0,10.753387021170312,0.0,1.0
1623778643.875,0,0,0.0,0.0,1.0
1623778644.34375,0,0,0.0,0.0,1.0
1623778644.8125,0,0,10.349508122357614,0.0,1.0
1623778645.28125,0,0,0.0,0.0,1.0
1623778645.75,0,0,11.381417028885787,0.0,1.0
1623778646.21875,0,0,0.0,0.0,1.0
1623778646.6875,0,0,6.972608648151957,0.0,1.0
1623778647.15625,0,0,0.0,0.0,1.0
1623778647.625,0,0,4.957016164595054,0.0,1.0
1623778648.09375,0,0,0.0,0.0,1.0
1623778648.5625,0,0,2.2158193252034404,0.0,1.0
1623778649.03125,0,0,1.667953206613662,0.0,1.0
1623778649.5,0,0,1.8971609727707626,0.0,1.0
1623778649.96875,0,0,2.1461978714744983,0.0,1.0
1623778650.4375,0,0,2.971740303305013,0.0,1.0
1623778650.90625,0,0,0.0,0.0,1.0
1623778651.375,0,0,1.985969625838632,0.0,1.0
1623778651.84375,0,0,0.0,0.0,1.0
1623778652.3125,0,0,1.9275882030911884,0.0,1.0
1623778652.78125,0,0,2.568014261646669,0.0,1.0
1623778653.25,0,0,0.0,0.0,1.0
1623778653.71875,0,0,3.416753688682725,0.0,1.0
1623778654.1875,0,0,3.9454306000325765,0.0,1.0
1623778654.65625,0,0,0.0,0.0,1.0
1623778655.125,0,0,5.849695393919903,0.0,1.0
1623778655.59375,0,0,7.102853000750197,0.0,1.0
1623778656.0625,0,0,0.0,0.0,1.0
1623778656.53125,0,0,5.31885043148724,0.0,1.0
1623778657.0,0,0,7.107888204590086,0.0,1.0
1623778657.46875,0,0,0.0,0.0,1.0
1623778657.9375,0,0,6.524914272079443,0.0,1.0
1623778658.40625,0,0,4.961827261055632,0.0,1.0
1623778658.875,0,0,2.087014652540596,0.0,1.0
1623778659.34375,0,0,4.4821601709372985,0.0,1.0
1623778659.8125,0,0,0.0,0.0,1.0
1623778660.28125,0,0,0.0,0.0,1.0
1623778660.75,0,0,3.989684493912074,0.0,1.0
1623778661.21875,0,0,0.0,0.0,1.0
1623778661.6875,0,0,4.324498343903382,0.0,1.0
1623778662.15625,0,0,4.322776228505905,0.0,1.0
1623778662.625,0,0,0.0,0.0,1.0
1623778663.09375,0,0,4.815056615268691,0.0,1.0
1623778663.5625,0,0,4.824689362264096,0.0,1.0
1623778664.03125,0,0,4.290897640752113,0.0,1.0
1623778664.5,0,0,4.3588099244848095,0.0,1.0
1623778664.96875,0,0,4.14696984373137,0.0,1.0
1623778665.4375,0,0,4.276218168717266,0.0,1.0
1623778665.90625,0,0,5.716520126648177,0.0,1.0
1623778666.375,0,0,0.0,0.0,1.0
1623778666.84375,0,0,4.70138446842963,0.0,1.0
1623778667.3125,0,0,6.411574291025607,0.0,1.0
1623778667.78125,0,0,0.0,0.0,1.0
1623778668.25,0,0,6.368068326693919,0.0,1.0
1623778668.71875,0,0,6.537349672327556,0.0,1.0
1623778669.1875,0,0,0.0,0.0,1.0
1623778669.65625,0,0,7.109703582424487,0.0,1.0
1623778670.125,0,0,7.371275172030243,0.0,1.0
1623778670.59375,0,0,0.0,0.0,1.0
1623778671.0625,0,0,7.72870060839685,0.0,1.0
1623778671.53125,0,0,8.0482617858193,0.0,1.0
1623778672.0,0,0,0.0,0.0,1.0
1623778672.46875,0,0,7.1673205902086,0.0,1.0
1623778672.9375,0,0,8.489210789097692,0.0,1.0
1623778673.40625,0,0,0.0,0.0,1.0
1623778673.875,0,0,6.700995547093313,0.0,1.0
1623778674.34375,0,0,8.310268984952424,0.0,1.0
1623778674.8125,0,0,0.0,0.0,1.0
1623778675.28125,0,0,7.676845531675586,0.0,1.0
1623778675.75,0,0,0.0,0.0,1.0
1623778676.21875,0,0,6.111914298494927,0.0,1.0
1623778676.6875,0,0,6.520062165350628,0.0,1.0
1623778677.15625,0,0,0.0,0.0,1.0
1623778677.625,0,0,4.453613982733905,0.0,1.0
1623778678.09375,0,0,6.0401724975449795,0.0,1.0
1623778678.5625,0,0,0.0,0.0,1.0
1623778679.03125,0,0,6.471868580799976,0.0,1.0
1623778679.5,0,0,0.0,0.0,1.0
1623778679.96875,0,0,0.0,0.0,1.0
1623778680.4375,0,0,6.282086377903573,0.0,1.0
1623778680.90625,0,0,6.269216489440055,0.0,1.0
1623778681.375,0,0,0.0,0.0,1.0
1623778681.84375,0,0,6.330327135225307,0.0,1.0
1623778682.3125,0,0,0.0,0.0,1.0
1623778682.78125,0,0,5.033076514459667,0.0,1.0
1623778683.25,0,0,6.599272660416236,0.0,1.0
1623778683.71875,0,0,0.0,0.0,1.0
1623778684.1875,0,0,5.213351878776962,0.0,1.0
1623778684.65625,0,0,6.0980390748984465,0.0,1.0
1623778685.125,0,0,0.0,0.0,1.0
1623778685.59375,0,0,4.6500764520523195,0.0,1.0
1623778686.0625,0,0,0.0,0.0,1.0
1623778686.53125,0,0,5.122642886097661,0.0,1.0
1623778687.0,0,0,7.608713562333875,0.0,1.0
1623778687.46875,0,0,0.0,0.0,1.0
1623778687.9375,0,0,2.5382321197597424,0.0,1.0
1623778688.40625,0,0,0.0,0.0,1.0
1623778688.875,0,0,12.837618349160342,0.0,1.0
1623778689.34375,0,0,15.621918616863496,0.0,1.0
1623778689.8125,0,0,0.0,0.0,1.0
1623778690.28125,0,0,106.02840671237715,0.0,1.0
1623778690.75,0,0,146.82505312626162,0.0,1.0
1623778691.21875,0,0,253.744089518932,0.0,1.0
1623778691.6875,0,0,13.321219670312491,0.0,1.0
1623778692.15625,0,0,284.1620515067996,0.0,1.0
1623778692.625,0,0,0.0,0.0,1.0
1623778693.09375,0,0,46.03512050539328,0.0,1.0
1623778693.5625,0,0,73.51408223660832,0.0,1.0
1623778694.03125,0,0,23.59783706840817,0.0,1.0
1623778694.5,0,0,0.0,0.0,1.0
1623778694.96875,0,0,79.9488302825043,0.0,1.0
1623778695.4375,0,0,0.0,0.0,1.0
1623778695.90625,0,0,33.28085668394205,0.0,1.0
1623778696.375,0,0,-4.514491016834027,0.0,1.0
1623778696.84375,0,0,0.0,0.0,1.0
1623778697.3125,0,0,115.73769860478559,0.0,1.0
1623778697.78125,0,0,-1.6356742588446933,0.0,1.0
1623778698.25,0,0,119.37263570847777,0.0,1.0
1623778698.71875,0,0,0.0,0.0,1.0
1623778699.1875,0,0,19.72377086719176,0.0,1.0
1623778699.65625,0,0,167.53015884976847,0.0,1.0
1623778700.125,0,0,-17.67258495993648,0.0,1.0
1623778700.59375,0,0,170.15746576402486,0.0,1.0
1623778701.0625,0,0,-3.62156731355119,0.0,1.0
1623778701.53125,0,0,10.325793825272793,0.0,1.0
1623778702.0,0,0,4.639731191125512,0.0,1.0
1623778702.46875,0,0,4.170298582757761,0.0,1.0
1623778702.9375,0,0,3.56600110696455,0.0,1.0
1623778703.40625,0,0,5.849215749507128,0.0,1.0
1623778703.875,0,0,8.505561754358395,0.0,1.0
1623778704.34375,0,0,0.0,0.0,1.0
1623778704.8125,0,0,8.508651204727588,0.0,1.0
1623778705.28125,0,0,8.66037084520982,0.0,1.0
1623778705.75,0,0,0.0,0.0,1.0
1623778706.21875,0,0,9.654531607262797,0.0,1.0
1623778706.6875,0,0,2.969022955442434,0.0,1.0
1623778707.15625,0,0,0.0,0.0,1.0
1623778707.625,0,0,14.955961304181129,0.0,1.0
1623778708.09375,0,0,4.071533996219793,0.0,1.0
1623778708.5625,0,0,1.7030525092586484,0.0,1.0
1623778709.03125,0,0,6.839668164092409,0.0,1.0
1623778709.5,0,0,5.042130882167226,0.0,1.0
1623778709.96875,0,0,1.9632264668762507,0.0,1.0
1623778710.4375,0,0,2.2457083242590095,0.0,1.0
1623778710.90625,0,0,4.546887096889902,0.0,1.0
1623778711.375,0,0,0.0,0.0,1.0
1623778711.84375,0,0,0.0,0.0,1.0
1623778712.3125,0,0,6.052168605571847,0.0,1.0
1623778712.78125,0,0,0.3199894711598871,0.0,1.0
1623778713.25,0,0,5.126639412376908,0.0,1.0
1623778713.71875,0,0,3.789874196348369,0.0,1.0
1623778714.1875,0,0,0.0,0.0,1.0
1623778714.65625,0,0,4.449758194405323,0.0,1.0
1623778715.125,0,0,5.213230859468501,0.0,1.0
1623778715.59375,0,0,0.0,0.0,1.0
1623778716.0625,0,0,5.226380065142807,0.0,1.0
1623778716.53125,0,0,0.0,0.0,1.0
1623778717.0,0,0,0.0,0.0,1.0
1623778717.46875,0,0,5.5530692225157905,0.0,1.0
1623778717.9375,0,0,0.0,0.0,1.0
1623778718.40625,0,0,5.970391504212376,0.0,1.0
1623778718.875,0,0,5.538380142447088,0.0,1.0
1623778719.34375,0,0,0.0,0.0,1.0
1623778719.8125,0,0,0.09867585251460395,0.0,1.0
1623778720.28125,0,0,5.468598598335008,0.0,1.0
1623778720.75,0,0,0.0,0.0,1.0
1623778721.21875,0,0,5.0827194464646475,0.0,1.0
1623778721.6875,0,0,3.750819536177147,0.0,1.0
1623778722.15625,0,0,0.0,0.0,1.0
1623778722.625,0,0,3.1897176882500675,0.0,1.0
1623778723.09375,0,0,0.0,0.0,1.0
1623778723.5625,0,0,2.7860416524579774,0.0,1.0
1623778724.03125,0,0,2.914319023844501,0.0,1.0
1623778724.5,0,0,2.7904116463792517,0.0,1.0
1623778724.96875,0,0,4.488731684270664,0.0,1.0
1623778725.4375,0,0,2.8006853860904783,0.0,1.0
1623778725.90625,0,0,2.74582641625885,0.0,1.0
1623778726.375,0,0,4.092969540214347,0.0,1.0
1623778726.84375,0,0,0.0,0.0,1.0
1623778727.3125,0,0,3.963915175528424,0.0,1.0
1623778727.78125,0,0,3.5527816433895527,0.0,1.0
1623778728.25,0,0,3.3935555970561877,0.0,1.0
1623778728.71875,0,0,4.898523224347092,0.0,1.0
1623778729.1875,0,0,0.0,0.0,1.0
1623778729.65625,0,0,4.390863484092446,0.0,1.0
1623778730.125,0,0,6.434362948354542,0.0,1.0
1623778730.59375,0,0,0.0,0.0,1.0
1623778731.0625,0,0,5.456587990780823,0.0,1.0
1623778731.53125,0,0,4.742137973479239,0.0,1.0
1623778732.0,0,0,4.514027666804429,0.0,1.0
1623778732.46875,0,0,5.337086098297536,0.0,1.0
1623778732.9375,0,0,0.0,0.0,1.0
1623778733.40625,0,0,7.134397974965181,0.0,1.0
1623778733.875,0,0,6.246820552838616,0.0,1.0
1623778734.34375,0,0,0.0,0.0,1.0
1623778734.8125,0,0,5.642991817917317,0.0,1.0
1623778735.28125,0,0,0.0,0.0,1.0
1623778735.75,0,0,5.323738282880921,0.0,1.0
1623778736.21875,0,0,6.123759461845031,0.0,1.0
1623778736.6875,0,0,0.0,0.0,1.0
1623778737.15625,0,0,5.667020421466596,0.0,1.0
1623778737.625,0,0,5.943478540454063,0.0,1.0
1623778738.09375,0,0,0.0,0.0,1.0
1623778738.5625,0,0,7.033723781695882,0.0,1.0
1623778739.03125,0,0,0.0,0.0,1.0
1623778739.5,0,0,6.49263904034192,0.0,1.0
1623778739.96875,0,0,7.803125777351941,0.0,1.0
1623778740.4375,0,0,0.0,0.0,1.0
1623778740.90625,0,0,5.438461524641005,0.0,1.0
1623778741.375,0,0,5.741772413738053,0.0,1.0
1623778741.84375,0,0,0.0,0.0,1.0
1623778742.3125,0,0,6.52072603575278,0.0,1.0
1623778742.78125,0,0,0.0,0.0,1.0
1623778743.25,0,0,6.016207545706198,0.0,1.0
1623778743.71875,0,0,5.249636743581792,0.0,1.0
1623778744.1875,0,0,0.0,0.0,1.0
1623778744.65625,0,0,6.008275747078438,0.0,1.0
1623778745.125,0,0,3.5617256659836034,0.0,1.0
1623778745.59375,0,0,3.052393332911325,0.0,1.0
1623778746.0625,0,0,5.344039591613599,0.0,1.0
1623778746.53125,0,0,0.0,0.0,1.0
1623778747.0,0,0,3.1084180167988573,0.0,1.0
1623778747.46875,0,0,0.0,0.0,1.0
1623778747.9375,0,0,8.30053709680178,0.0,1.0
1623778748.40625,0,0,14.053720100104583,0.0,1.0
1623778748.875,0,0,30.204679595159572,0.0,1.0
1623778749.34375,0,0,131.27489440827364,0.0,1.0
1623778749.8125,0,0,21.44513021636799,0.0,1.0
1623778750.28125,0,0,73.84955432741548,0.0,1.0
1623778750.75,0,0,60.9246277360849,0.0,1.0
1623778751.21875,0,0,19.41760105426459,0.0,1.0
1623778751.6875,0,0,-3.914819143946961,0.0,1.0
1623778752.15625,0,0,-3.63004753690117,0.0,1.0
1623778752.625,0,0,10.473864149932085,0.0,1.0
1623778753.09375,0,0,-3.771652725423322,0.0,1.0
1623778753.5625,0,0,7.567623432541782,0.0,1.0
1623778754.03125,0,0,5.446783562744902,0.0,1.0
1623778754.5,0,0,0.0,0.0,1.0
1623778754.96875,0,0,5.283456309803299,0.0,1.0
1623778755.4375,0,0,5.294166399308498,0.0,1.0
1623778755.90625,0,0,0.0,0.0,1.0
1623778756.375,0,0,5.166112924557872,0.0,1.0
1623778756.84375,0,0,-0.34432895595573837,0.0,1.0
1623778757.3125,0,0,0.6901735261955826,0.0,1.0
1623778757.78125,0,0,0.0,0.0,1.0
1623778758.25,0,0,30.972460582775852,0.0,1.0
1623778758.71875,0,0,0.0,0.0,1.0
1623778759.1875,0,0,139.42660489387296,0.0,1.0
1623778759.65625,0,0,47.028850432742026,0.0,1.0
1623778760.125,0,0,47.924169195553915,0.0,1.0
1623778760.59375,0,0,10.17122480871687,0.0,1.0
1623778761.0625,0,0,0.0,0.0,1.0
1623778761.53125,0,0,0.0,0.0,1.0
1623778762.0,0,0,5.551325691970336,0.0,1.0
1623778762.46875,0,0,5.987112192027583,0.0,1.0
1623778762.9375,0,0,0.0,0.0,1.0
1623778763.40625,0,0,5.106036068090245,0.0,1.0
1623778763.875,0,0,1.9543680907219727,0.0,1.0
1623778764.34375,0,0,5.412632068849752,0.0,1.0
1623778764.8125,0,0,0.0,0.0,1.0
1623778765.28125,0,0,5.960125908719309,0.0,1.0
1623778765.75,0,0,5.156821560209622,0.0,1.0
1623778766.21875,0,0,0.0,0.0,1.0
1623778766.6875,0,0,4.926629202085713,0.0,1.0
1623778767.15625,0,0,7.726620632785399,0.0,1.0
1623778767.625,0,0,0.0,0.0,1.0
1623778768.09375,0,0,4.504828368191154,0.0,1.0
1623778768.5625,0,0,4.927133593176605,0.0,1.0
1623778769.03125,0,0,3.301834301472079,0.0,1.0
1623778769.5,0,0,5.406820048385129,0.0,1.0
1623778769.96875,0,0,0.0,0.0,1.0
1623778770.4375,0,0,5.387375041241759,0.0,1.0
1623778770.90625,0,0,6.400173439096727,0.0,1.0
1623778771.375,0,0,0.0,0.0,1.0
1623778771.84375,0,0,6.888756500827913,0.0,1.0
1623778772.3125,0,0,0.0,0.0,1.0
1623778772.78125,0,0,0.0,0.0,1.0
1623778773.25,0,0,4.585968948810751,0.0,1.0
1623778773.71875,0,0,0.0,0.0,1.0
1623778774.1875,0,0,7.584897433624312,0.0,1.0
1623778774.65625,0,0,7.1454819377315735,0.0,1.0
1623778775.125,0,0,0.0,0.0,1.0
1623778775.59375,0,0,9.727511209260307,0.0,1.0
1623778776.0625,0,0,0.0,0.0,1.0
1623778776.53125,0,0,9.119473305722806,0.0,1.0
1623778777.0,0,0,0.0,0.0,1.0
1623778777.46875,0,0,8.945737657618702,0.0,1.0
1623778777.9375,0,0,0.0,0.0,1.0
1623778778.40625,0,0,8.289820494250728,0.0,1.0
1623778778.875,0,0,8.548731828274569,0.0,1.0
1623778779.34375,0,0,5.398174307840941,0.0,1.0
1623778779.8125,0,0,9.333429009332125,0.0,1.0
1623778780.28125,0,0,6.639239340162066,0.0,1.0
1623778780.75,0,0,9.94787102146756,0.0,1.0
1623778781.21875,0,0,0.0,0.0,1.0
1623778781.6875,0,0,9.568499870812978,0.0,1.0
1623778782.15625,0,0,8.75889661345054,0.0,1.0
1623778782.625,0,0,0.0,0.0,1.0
1623778783.09375,0,0,8.770031307163897,0.0,1.0
1623778783.5625,0,0,0.0,0.0,1.0
1623778784.03125,0,0,8.923718917680723,0.0,1.0
1623778784.5,0,0,0.0,0.0,1.0
1623778784.96875,0,0,8.126508752141973,0.0,1.0
1623778785.4375,0,0,7.419524675874006,0.0,1.0
1623778785.90625,0,0,8.020743236263217,0.0,1.0
1623778786.375,0,0,7.984327714725427,0.0,1.0
1623778786.84375,0,0,7.343837001709723,0.0,1.0
1623778787.3125,0,0,7.210496453563869,0.0,1.0
1623778787.78125,0,0,0.0,0.0,1.0
1623778788.25,0,0,8.813585885186155,0.0,1.0
1623778788.71875,0,0,0.0,0.0,1.0
1623778789.1875,0,0,8.810387552265903,0.0,1.0
1623778789.65625,0,0,0.0,0.0,1.0
1623778790.125,0,0,8.867214296856815,0.0,1.0
1623778790.59375,0,0,10.750934914932657,0.0,1.0
1623778791.0625,0,0,5.152684993273729,0.0,1.0
1623778791.53125,0,0,8.404002749728342,0.0,1.0
1623778792.0,0,0,0.0,0.0,1.0
1623778792.46875,0,0,8.668260599208256,0.0,1.0
1623778792.9375,0,0,8.203501515394485,0.0,1.0
1623778793.40625,0,0,0.0,0.0,1.0
1623778793.875,0,0,7.423576945214174,0.0,1.0
1623778794.34375,0,0,0.0,0.0,1.0
1623778794.8125,0,0,4.272519401864092,0.0,1.0
1623778795.28125,0,0,23.518573336991697,0.0,1.0
1623778795.75,0,0,7.939007556730615,0.0,1.0
1623778796.21875,0,0,10.134183697164731,0.0,1.0
1623778796.6875,0,0,9.649448634027978,0.0,1.0
1623778797.15625,0,0,5.154534320362822,0.0,1.0
1623778797.625,0,0,4.485124337847898,0.0,1.0
1623778798.09375,0,0,7.29478950628557,0.0,1.0
1623778798.5625,0,0,0.0,0.0,1.0
1623778799.03125,0,0,6.930008688421032,0.0,1.0
1623778799.5,0,0,0.0,0.0,1.0
1623778799.96875,0,0,5.048277991059539,0.0,1.0
1623778800.4375,0,0,6.755924888988621,0.0,1.0
1623778800.90625,0,0,0.0,0.0,1.0
1623778801.375,0,0,6.860710052647254,0.0,1.0
1623778801.84375,0,0,0.0,0.0,1.0
1623778802.3125,0,0,7.942612591373008,0.0,1.0
1623778802.78125,0,0,7.623733048079237,0.0,1.0
1623778803.25,0,0,7.1909983212236135,0.0,1.0
1623778803.71875,0,0,9.175613017774698,0.0,1.0
1623778804.1875,0,0,0.0,0.0,1.0
1623778804.65625,0,0,11.995334423219655,0.0,1.0
1623778805.125,0,0,8.582832303068118,0.0,1.0
1623778805.59375,0,0,4.420142822221477,0.0,1.0
1623778806.0625,0,0,7.390419912533602,0.0,1.0
1623778806.53125,0,0,5.239857624133285,0.0,1.0
1623778807.0,0,0,5.253709009614,0.0,1.0
1623778807.46875,0,0,0.0,0.0,1.0
1623778807.9375,0,0,7.972572877162294,0.0,1.0
1623778808.40625,0,0,8.02878875406337,0.0,1.0
1623778808.875,0,0,3.8214603816164847,0.0,1.0
1623778809.34375,0,0,5.8713611150391145,0.0,1.0
1623778809.8125,0,0,7.3076743404827464,0.0,1.0
1623778810.28125,0,0,0.0,0.0,1.0
1623778810.75,0,0,5.679894330046911,0.0,1.0
1623778811.21875,0,0,0.0,0.0,1.0
1623778811.6875,0,0,7.495632383724243,0.0,1.0
1623778812.15625,0,0,6.290814137612186,0.0,1.0
1623778812.625,0,0,4.3208868275571435,0.0,1.0
1623778813.09375,0,0,6.785803447387999,0.0,1.0
1623778813.5625,0,0,4.314470324469161,0.0,1.0
1623778814.03125,0,0,6.269016308042606,0.0,1.0
1623778814.5,0,0,0.0,0.0,1.0
1623778814.96875,0,0,6.555609735612914,0.0,1.0
1623778815.4375,0,0,0.0,0.0,1.0
1623778815.90625,0,0,6.26792991959104,0.0,1.0
1623778816.375,0,0,0.0,0.0,1.0
1623778816.84375,0,0,5.598526254897835,0.0,1.0
1623778817.3125,0,0,5.813189569050905,0.0,1.0
1623778817.78125,0,0,5.5284030124365495,0.0,1.0
1623778818.25,0,0,5.745422924824183,0.0,1.0
1623778818.71875,0,0,4.3840215654422385,0.0,1.0
1623778819.1875,0,0,6.738808991191023,0.0,1.0
1623778819.65625,0,0,8.033314274347177,0.0,1.0
1623778820.125,0,0,0.0,0.0,1.0
1623778820.59375,0,0,8.21034078073859,0.0,1.0
1623778821.0625,0,0,0.0,0.0,1.0
1623778821.53125,0,0,8.480625654994007,0.0,1.0
1623778822.0,0,0,9.673156178061365,0.0,1.0
1623778822.46875,0,0,8.150469663451384,0.0,1.0
1623778822.9375,0,0,8.221577785948677,0.0,1.0
1623778823.40625,0,0,8.106865685796697,0.0,1.0
1623778823.875,0,0,8.317653658645318,0.0,1.0
1623778824.34375,0,0,0.0,0.0,1.0
1623778824.8125,0,0,9.166021988551362,0.0,1.0
1623778825.28125,0,0,8.516218347502246,0.0,1.0
1623778825.75,0,0,0.0,0.0,1.0
1623778826.21875,0,0,8.179722657264131,0.0,1.0
1623778826.6875,0,0,0.0,0.0,1.0
1623778827.15625,0,0,7.058095814596251,0.0,1.0
1623778827.625,0,0,0.0,0.0,1.0
1623778828.09375,0,0,5.119510778721607,0.0,1.0
1623778828.5625,0,0,5.409887781450087,0.0,1.0
1623778829.03125,0,0,4.269963559693592,0.0,1.0
1623778829.5,0,0,5.234955588421758,0.0,1.0
1623778829.96875,0,0,0.0,0.0,1.0
1623778830.4375,0,0,4.4247292332781045,0.0,1.0
1623778830.90625,0,0,4.7480154884772805,0.0,1.0
1623778831.375,0,0,3.53318853652725,0.0,1.0
1623778831.84375,0,0,4.491884946060396,0.0,1.0
1623778832.3125,0,0,0.0,0.0,1.0
1623778832.78125,0,0,5.168243611211323,0.0,1.0
1623778833.25,0,0,5.071367816168945,0.0,1.0
1623778833.71875,0,0,4.266746058295145,0.0,1.0
1623778834.1875,0,0,4.100525465021337,0.0,1.0
1623778834.65625,0,0,0.0,0.0,1.0
1623778835.125,0,0,4.848632277114648,0.0,1.0
1623778835.59375,0,0,2.2464972983855067,0.0,1.0
1623778836.0625,0,0,2.9810886183258587,0.0,1.0
1623778836.53125,0,0,3.838077531112665,0.0,1.0
1623778837.0,0,0,3.5254716924904312,0.0,1.0
1623778837.46875,0,0,4.389129658113226,0.0,1.0
1623778837.9375,0,0,0.0,0.0,1.0
1623778838.40625,0,0,5.084812234846605,0.0,1.0
1623778838.875,0,0,3.668467895487004,0.0,1.0
1623778839.34375,0,0,0.0,0.0,1.0
1623778839.8125,0,0,4.3236863562558785,0.0,1.0
1623778840.28125,0,0,0.0,0.0,1.0
1623778840.75,0,0,4.445977742748916,0.0,1.0
1623778841.21875,0,0,4.405111982665931,0.0,1.0
1623778841.6875,0,0,0.0,0.0,1.0
1623778842.15625,0,0,3.430667224486082,0.0,1.0
1623778842.625,0,0,4.793387443315127,0.0,1.0
1623778843.09375,0,0,0.0,0.0,1.0
1623778843.5625,0,0,4.855074462760588,0.0,1.0
1623778844.03125,0,0,5.227792448116344,0.0,1.0
1623778844.5,0,0,0.0,0.0,1.0
1623778844.96875,0,0,3.085936743541183,0.0,1.0
1623778845.4375,0,0,0.0,0.0,1.0
1623778845.90625,0,0,0.0,0.0,1.0
1623778846.375,0,0,4.160369129150033,0.0,1.0
1623778846.84375,0,0,0.0,0.0,1.0
1623778847.3125,0,0,4.6584997658237075,0.0,1.0
1623778847.78125,0,0,2.5097435260342658,0.0,1.0
1623778848.25,0,0,3.566216277693394,0.0,1.0
1623778848.71875,0,0,5.805655033284943,0.0,1.0
1623778849.1875,0,0,0.0,0.0,1.0
1623778849.65625,0,0,4.734970774606179,0.0,1.0
1623778850.125,0,0,5.637712274565956,0.0,1.0
1623778850.59375,0,0,0.0,0.0,1.0
1623778851.0625,0,0,4.133377426907001,0.0,1.0
1623778851.53125,0,0,6.830388752583212,0.0,1.0
1623778852.0,0,0,0.9096614408653192,0.0,1.0
1623778852.46875,0,0,4.458039191310686,0.0,1.0
1623778852.9375,0,0,0.0,0.0,1.0
1623778853.40625,0,0,5.720206332305262,0.0,1.0
1623778853.875,0,0,4.1743700992896295,0.0,1.0
1623778854.34375,0,0,4.487975364362615,0.0,1.0
1623778854.8125,0,0,5.45001123393058,0.0,1.0
1623778855.28125,0,0,7.0141951377392555,0.0,1.0
1623778855.75,0,0,0.0,0.0,1.0
1623778856.21875,0,0,6.2069303837835434,0.0,1.0
1623778856.6875,0,0,8.351922694901084,0.0,1.0
1623778857.15625,0,0,0.0,0.0,1.0
1623778857.625,0,0,7.320961988305994,0.0,1.0
1623778858.09375,0,0,4.732201963145667,0.0,1.0
1623778858.5625,0,0,2.8192132190784824,0.0,1.0
1623778859.03125,0,0,5.912197006523772,0.0,1.0
1623778859.5,0,0,0.0,0.0,1.0
1623778859.96875,0,0,5.8775562340995995,0.0,1.0
1623778860.4375,0,0,5.729649393386934,0.0,1.0
1623778860.90625,0,0,0.0,0.0,1.0
1623778861.375,0,0,4.114527595803362,0.0,1.0
1623778861.84375,0,0,4.441443130191193,0.0,1.0
1623778862.3125,0,0,3.6771393035447897,0.0,1.0
1623778862.78125,0,0,4.503911701979625,0.0,1.0
1623778863.25,0,0,2.384784181075153,0.0,1.0
1623778863.71875,0,0,5.785966081720978,0.0,1.0
1623778864.1875,0,0,3.1337798338457556,0.0,1.0
1623778864.65625,0,0,0.0,0.0,1.0
1623778865.125,0,0,8.069641380543457,0.0,1.0
1623778865.59375,0,0,17.043837509772505,0.0,1.0
1623778866.0625,0,0,18.530498234761602,0.0,1.0
1623778866.53125,0,0,160.2251202286068,0.0,1.0
1623778867.0,0,0,0.0,0.0,1.0
1623778867.46875,0,0,8.136367341960321,0.0,1.0
1623778867.9375,0,0,13.948705791190799,0.0,1.0
1623778868.40625,0,0,6.667175604764906,0.0,1.0
1623778868.875,0,0,0.0,0.0,1.0
1623778869.34375,0,0,4.076338321081992,0.0,1.0
1623778869.8125,0,0,8.275045383393083,0.0,1.0
1623778870.28125,0,0,0.0,0.0,1.0
1623778870.75,0,0,4.064564573626359,0.0,1.0
1623778871.21875,0,0,0.0,0.0,1.0
1623778871.6875,0,0,4.251161441167699,0.0,1.0
1623778872.15625,0,0,4.764856726084651,0.0,1.0
1623778872.625,0,0,-1.8569903133802232,0.0,1.0
1623778873.09375,0,0,2.924068559153332,0.0,1.0
1623778873.5625,0,0,0.0,0.0,1.0
1623778874.03125,0,0,43.073308299484324,0.0,1.0
1623778874.5,0,0,149.76286132841977,0.0,1.0
1623778874.96875,0,0,0.0,0.0,1.0
1623778875.4375,0,0,0.0,0.0,1.0
1623778875.90625,0,0,20.35308024528986,0.0,1.0
1623778876.375,0,0,0.3263547555207065,0.0,1.0
1623778876.84375,0,0,8.483425425208198,0.0,1.0
1623778877.3125,0,0,28.950891225208306,0.0,1.0
1623778877.78125,0,0,2.681645003360786,0.0,1.0
1623778878.25,0,0,10.582822115396207,0.0,1.0
1623778878.71875,0,0,0.0,0.0,1.0
1623778879.1875,0,0,3.5987552740248177,0.0,1.0
1623778879.65625,0,0,5.311735045279569,0.0,1.0
1623778880.125,0,0,0.0,0.0,1.0
1623778880.59375,0,0,6.471628912876325,0.0,1.0
1623778881.0625,0,0,0.0,0.0,1.0
1623778881.53125,0,0,7.2844915005886595,0.0,1.0
1623778882.0,0,0,4.306798631606983,0.0,1.0
1623778882.46875,0,0,0.0,0.0,1.0
1623778882.9375,0,0,6.396380904644257,0.0,1.0
1623778883.40625,0,0,2.378930841907894,0.0,1.0
1623778883.875,0,0,1.4976534889656472,0.0,1.0
1623778884.34375,0,0,4.812805549422752,0.0,1.0
1623778884.8125,0,0,4.7037232033107195,0.0,1.0
1623778885.28125,0,0,3.1417502695054003,0.0,1.0
1623778885.75,0,0,4.754926867165465,0.0,1.0
1623778886.21875,0,0,5.812013328886105,0.0,1.0
1623778886.6875,0,0,3.832884540736385,0.0,1.0
1623778887.15625,0,0,4.525858921524441,0.0,1.0
1623778887.625,0,0,0.0,0.0,1.0
1623778888.09375,0,0,0.0,0.0,1.0
1623778888.5625,0,0,5.517090638448771,0.0,1.0
1623778889.03125,0,0,1.6506778155243362,0.0,1.0
1623778889.5,0,0,6.162196536752323,0.0,1.0
1623778889.96875,0,0,4.984109601956748,0.0,1.0
1623778890.4375,0,0,0.0,0.0,1.0
1623778890.90625,0,0,4.101060133873869,0.0,1.0
1623778891.375,0,0,4.959492032372823,0.0,1.0
1623778891.84375,0,0,0.0,0.0,1.0
1623778892.3125,0,0,4.539653799067675,0.0,1.0
1623778892.78125,0,0,6.09831743715324,0.0,1.0
1623778893.25,0,0,0.0,0.0,1.0
1623778893.71875,0,0,4.17068206913423,0.0,1.0
1623778894.1875,0,0,5.547028399012921,0.0,1.0
1623778894.65625,0,0,3.6314489798398464,0.0,1.0
1623778895.125,0,0,4.257738646116822,0.0,1.0
1623778895.59375,0,0,3.4295571844259527,0.0,1.0
1623778896.0625,0,0,5.068703553793174,0.0,1.0
1623778896.53125,0,0,0.0,0.0,1.0
1623778897.0,0,0,6.461410132946569,0.0,1.0
1623778897.46875,0,0,5.270546398626544,0.0,1.0
1623778897.9375,0,0,0.0,0.0,1.0
1623778898.40625,0,0,5.436287350174629,0.0,1.0
1623778898.875,0,0,0.0,0.0,1.0
1623778899.34375,0,0,6.173275918566735,0.0,1.0
1623778899.8125,0,0,6.485096705611635,0.0,1.0
1623778900.28125,0,0,0.0,0.0,1.0
1623778900.75,0,0,9.857531913024989,0.0,1.0
1623778901.21875,0,0,0.0,0.0,1.0
1623778901.6875,0,0,0.0,0.0,1.0
1623778902.15625,0,0,7.602408639744995,0.0,1.0
1623778902.625,0,0,0.0,0.0,1.0
1623778903.09375,0,0,9.141351125738222,0.0,1.0
1623778903.5625,0,0,10.505134651475197,0.0,1.0
1623778904.03125,0,0,8.538191335640894,0.0,1.0
1623778904.5,0,0,9.932002397623357,0.0,1.0
1623778904.96875,0,0,7.405178262918232,0.0,1.0
1623778905.4375,0,0,8.020163716435388,0.0,1.0
1623778905.90625,0,0,8.926963597151712,0.0,1.0
1623778906.375,0,0,6.661124563902926,0.0,1.0
1623778906.84375,0,0,0.0,0.0,1.0
1623778907.3125,0,0,6.912581762214128,0.0,1.0
1623778907.78125,0,0,7.71775741996248,0.0,1.0
1623778908.25,0,0,6.462022036075726,0.0,1.0
1623778908.71875,0,0,8.00891999044201,0.0,1.0
1623778909.1875,0,0,0.0,0.0,1.0
1623778909.65625,0,0,8.506350712491605,0.0,1.0
1623778910.125,0,0,0.0,0.0,1.0
1623778910.59375,0,0,6.454985167373813,0.0,1.0
1623778911.0625,0,0,9.036168696528577,0.0,1.0
1623778911.53125,0,0,5.933827845376956,0.0,1.0
1623778912.0,0,0,8.246877302260428,0.0,1.0
1623778912.46875,0,0,0.0,0.0,1.0
1623778912.9375,0,0,7.727395011542834,0.0,1.0
1623778913.40625,0,0,0.0,0.0,1.0
1623778913.875,0,0,7.041799768176459,0.0,1.0
1623778914.34375,0,0,6.739766848489903,0.0,1.0
1623778914.8125,0,0,4.307491258024822,0.0,1.0
1623778915.28125,0,0,5.993982702463153,0.0,1.0
1623778915.75,0,0,5.292519403635648,0.0,1.0
1623778916.21875,0,0,6.11255317823076,0.0,1.0
1623778916.6875,0,0,0.0,0.0,1.0
1623778917.15625,0,0,0.0,0.0,1.0
1623778917.625,0,0,6.406743236802742,0.0,1.0
1623778918.09375,0,0,5.777134292679989,0.0,1.0
1623778918.5625,0,0,5.975854787990239,0.0,1.0
1623778919.03125,0,0,0.0,0.0,1.0
1623778919.5,0,0,7.953537297646445,0.0,1.0
1623778919.96875,0,0,0.0,0.0,1.0
1623778920.4375,0,0,6.841948232037409,0.0,1.0
1623778920.90625,0,0,7.013685433033891,0.0,1.0
1623778921.375,0,0,6.164779154898158,0.0,1.0
1623778921.84375,0,0,5.268971822610018,0.0,1.0
1623778922.3125,0,0,1.6059185468518233,0.0,1.0
1623778922.78125,0,0,5.897086331916013,0.0,1.0
1623778923.25,0,0,0.0,0.0,1.0
1623778923.71875,0,0,5.748066986506017,0.0,1.0
1623778924.1875,0,0,0.0,0.0,1.0
1623778924.65625,0,0,3.777162887866742,0.0,1.0
1623778925.125,0,0,6.681330524756388,0.0,1.0
1623778925.59375,0,0,5.512418258990338,0.0,1.0
1623778926.0625,0,0,5.993007027762185,0.0,1.0
1623778926.53125,0,0,0.0,0.0,1.0
1623778927.0,0,0,0.0,0.0,1.0
1623778927.46875,0,0,5.993423056004515,0.0,1.0
1623778927.9375,0,0,4.474294114498352,0.0,1.0
1623778928.40625,0,0,6.348446378350791,0.0,1.0
1623778928.875,0,0,0.0,0.0,1.0
1623778929.34375,0,0,6.338749735113747,0.0,1.0
1623778929.8125,0,0,0.0,0.0,1.0
1623778930.28125,0,0,6.2900918993195996,0.0,1.0
1623778930.75,0,0,7.1657798051445365,0.0,1.0
1623778931.21875,0,0,0.0,0.0,1.0
1623778931.6875,0,0,6.9643923974426905,0.0,1.0
1623778932.15625,0,0,4.037090269620686,0.0,1.0
1623778932.625,0,0,7.171549071335301,0.0,1.0
1623778933.09375,0,0,0.0,0.0,1.0
1623778933.5625,0,0,6.865565044956736,0.0,1.0
1623778934.03125,0,0,7.557834788215119,0.0,1.0
1623778934.5,0,0,5.425505081838514,0.0,1.0
1623778934.96875,0,0,7.630291520626617,0.0,1.0
1623778935.4375,0,0,5.284330896503978,0.0,1.0
1623778935.90625,0,0,7.706522831389351,0.0,1.0
1623778936.375,0,0,0.0,0.0,1.0
1623778936.84375,0,0,6.968008907116016,0.0,1.0
1623778937.3125,0,0,0.0,0.0,1.0
1623778937.78125,0,0,9.82932625963337,0.0,1.0
1623778938.25,0,0,0.0,0.0,1.0
1623778938.71875,0,0,51.683811675764076,0.0,1.0
1623778939.1875,0,0,132.58319581036056,0.0,2.0
1623778939.65625,0,0,0.0,0.0,2.0
1623778940.125,0,0,75.56733040851451,0.0,2.0
1623778940.59375,0,0,174.8204132854144,0.0,2.0
1623778941.0625,0,0,-25.49580957567614,0.0,2.0
1623778941.53125,0,0,186.89979690354178,0.0,2.0
1623778942.0,0,0,-148.90229440948374,0.0,2.0
1623778942.46875,0,0,0.0,0.0,2.0
1623778942.9375,0,0,261.54445060668655,0.0,2.0
1623778943.40625,0,0,0.0,0.0,2.0
1623778943.875,0,0,-29.84660012732638,0.0,2.0
1623778944.34375,0,0,85.95747910474216,0.0,2.0
1623778944.8125,0,0,113.94387351200663,0.0,2.0
1623778945.28125,0,0,31.97189296348753,0.0,2.0
1623778945.75,0,0,32.92529581715181,0.0,2.0
1623778946.21875,0,0,0.0,0.0,2.0
1623778946.6875,0,0,12.806604185830677,0.0,2.0
1623778947.15625,0,0,12.062762593259391,0.0,2.0
1623778947.625,0,0,5.306931875840038,0.0,2.0
1623778948.09375,0,0,2.3389041988567083,0.0,2.0
1623778948.5625,0,0,8.842170397060093,0.0,2.0
1623778949.03125,0,0,24.530738203026424,0.0,2.0
1623778949.5,0,0,-6.897123674134867,0.0,2.0
1623778949.96875,0,0,215.40817090636233,0.0,2.0
1623778950.4375,0,0,-10.479112016216972,0.0,2.0
1623778950.90625,0,0,-6.34347435109063,0.0,2.0
1623778951.375,0,0,2.046279607958903,0.0,2.0
1623778951.84375,0,0,0.0,0.0,2.0
1623778952.3125,0,0,0.0,0.0,2.0
1623778952.78125,0,0,42.60605849538139,0.0,2.0
1623778953.25,0,0,9.41073796021711,0.0,2.0
1623778953.71875,0,0,11.395296105400547,0.0,2.0
1623778954.1875,0,0,8.295103458273068,0.0,2.0
1623778954.65625,0,0,0.0,0.0,2.0
1623778955.125,0,0,3.775165343254643,0.0,2.0
1623778955.59375,0,0,3.1388500678928364,0.0,2.0
1623778956.0625,0,0,3.795122049567813,0.0,2.0
1623778956.53125,0,0,0.013492195102393023,0.0,2.0
1623778957.0,0,0,2.625722400901239,0.0,2.0
1623778957.46875,0,0,4.369247013313453,0.0,2.0
1623778957.9375,0,0,8.877878014554806,0.0,2.0
1623778958.40625,0,0,0.0,0.0,2.0
1623778958.875,0,0,5.428666943536932,0.0,2.0
1623778959.34375,0,0,5.177479131407001,0.0,2.0
1623778959.8125,0,0,0.0,0.0,2.0
1623778960.28125,0,0,5.678138280572342,0.0,2.0
1623778960.75,0,0,-2.9041189299586376,0.0,2.0
1623778961.21875,0,0,7.311390171460428,0.0,2.0
1623778961.6875,0,0,3.4129847443310912,0.0,2.0
1623778962.15625,0,0,0.0,0.0,2.0
1623778962.625,0,0,11.569343017550372,0.0,2.0
1623778963.09375,0,0,5.454581927912627,0.0,2.0
1623778963.5625,0,0,0.0,0.0,2.0
1623778964.03125,0,0,6.536353982381456,0.0,2.0
1623778964.5,0,0,0.0,0.0,2.0
1623778964.96875,0,0,5.740216296458402,0.0,2.0
1623778965.4375,0,0,0.0,0.0,2.0
1623778965.90625,0,0,4.512474053710292,0.0,2.0
1623778966.375,0,0,0.0,0.0,2.0
1623778966.84375,0,0,2.9860889584536143,0.0,2.0
1623778967.3125,0,0,4.972500529062232,0.0,2.0
1623778967.78125,0,0,0.0,0.0,2.0
1623778968.25,0,0,4.130296751360888,0.0,2.0
1623778968.71875,0,0,4.6670625260477845,0.0,2.0
1623778969.1875,0,0,4.694473306408954,0.0,2.0
1623778969.65625,0,0,0.0,0.0,2.0
1623778970.125,0,0,5.203216986963773,0.0,2.0
1623778970.59375,0,0,0.0,0.0,2.0
1623778971.0625,0,0,5.000239085468593,0.0,2.0
1623778971.53125,0,0,4.629101931142659,0.0,2.0
1623778972.0,0,0,2.812900391634896,0.0,2.0
1623778972.46875,0,0,4.746197101842255,0.0,2.0
1623778972.9375,0,0,0.0,0.0,2.0
1623778973.40625,0,0,8.964543688927625,0.0,2.0
1623778973.875,0,0,1.7190649567932363,0.0,2.0
1623778974.34375,0,0,2.083028704652216,0.0,2.0
1623778974.8125,0,0,0.0,0.0,2.0
1623778975.28125,0,0,87.44840568492855,0.0,2.0
1623778975.75,0,0,-38.84959904766271,0.0,2.0
1623778976.21875,0,0,206.38290819641347,0.0,2.0
1623778976.6875,0,0,0.0,0.0,2.0
1623778977.15625,0,0,72.37949517429175,0.0,2.0
1623778977.625,0,0,0.0,0.0,2.0
1623778978.09375,0,0,14.384562964437904,0.0,2.0
1623778978.5625,0,0,9.576060140971405,0.0,2.0
1623778979.03125,0,0,8.471027456892132,0.0,2.0
1623778979.5,0,0,3.272197355379146,0.0,2.0
1623778979.96875,0,0,0.0,0.0,2.0
1623778980.4375,0,0,7.790859537458169,0.0,2.0
1623778980.90625,0,0,2.9416482219790674,0.0,2.0
1623778981.375,0,0,3.3297639972395605,0.0,2.0
1623778981.84375,0,0,2.372054344925041,0.0,2.0
1623778982.3125,0,0,9.814423412743958,0.0,2.0
1623778982.78125,0,0,0.0,0.0,2.0
1623778983.25,0,0,16.524154469567474,0.0,2.0
1623778983.71875,0,0,0.0,0.0,2.0
1623778984.1875,0,0,70.76918974176974,0.0,2.0
1623778984.65625,0,0,35.05840366564554,0.0,2.0
1623778985.125,0,0,38.46495193490506,0.0,2.0
1623778985.59375,0,0,96.55847954774104,0.0,2.0
1623778986.0625,0,0,0.0,0.0,2.0
1623778986.53125,0,0,49.57301888845793,0.0,2.0
1623778987.0,0,0,0.0,0.0,2.0
1623778987.46875,0,0,0.0,0.0,2.0
1623778987.9375,0,0,-0.011244347085135359,0.0,2.0
1623778988.40625,0,0,0.0,0.0,2.0
1623778988.875,0,0,12.691251756654275,0.0,2.0
1623778989.34375,0,0,6.356055416449857,0.0,2.0
1623778989.8125,0,0,-0.4613154445506824,0.0,2.0
1623778990.28125,0,0,1.1151410396561396,0.0,2.0
1623778990.75,0,0,9.032605194905797,0.0,2.0
1623778991.21875,0,0,4.517307798954028,0.0,2.0
1623778991.6875,0,0,0.0,0.0,2.0
1623778992.15625,0,0,3.4290532798667255,0.0,2.0
1623778992.625,0,0,0.0,0.0,2.0
1623778993.09375,0,0,2.559328898041883,0.0,2.0
1623778993.5625,0,0,0.9278744957454567,0.0,2.0
1623778994.03125,0,0,8.887449834052447,0.0,2.0
1623778994.5,0,0,8.081479447010661,0.0,2.0
1623778994.96875,0,0,0.0,0.0,2.0
1623778995.4375,0,0,7.260644733728108,0.0,2.0
1623778995.90625,0,0,0.0,0.0,2.0
1623778996.375,0,0,0.0,0.0,2.0
1623778996.84375,0,0,6.081716923085684,0.0,2.0
1623778997.3125,0,0,0.0,0.0,2.0
1623778997.78125,0,0,9.492489073832356,0.0,2.0
1623778998.25,0,0,5.4973261570382865,0.0,2.0
1623778998.71875,0,0,0.0,0.0,2.0
1623778999.1875,0,0,5.127209698624749,0.0,2.0
1623778999.65625,0,0,0.0,0.0,2.0
1623779000.125,0,0,4.660419114289078,0.0,2.0
1623779000.59375,0,0,0.0,0.0,2.0
1623779001.0625,0,0,4.552747179876939,0.0,2.0
1623779001.53125,0,0,0.0,0.0,2.0
1623779002.0,0,0,4.662778556053715,0.0,2.0
1623779002.46875,0,0,0.0,0.0,2.0
1623779002.9375,0,0,0.0,0.0,2.0
1623779003.40625,0,0,5.257326776857137,0.0,2.0
1623779003.875,0,0,3.2163800854184537,0.0,2.0
1623779004.34375,0,0,4.200465932840144,0.0,2.0
1623779004.8125,0,0,0.0,0.0,2.0
1623779005.28125,0,0,4.86910246929829,0.0,2.0
1623779005.75,0,0,0.0,0.0,2.0
1623779006.21875,0,0,5.270075927550811,0.0,2.0
1623779006.6875,0,0,0.0,0.0,2.0
1623779007.15625,0,0,10.03256003914715,0.0,2.0
1623779007.625,0,0,4.860375522338338,0.0,2.0
1623779008.09375,0,0,2.6984337478017397,0.0,2.0
1623779008.5625,0,0,6.803713308560844,0.0,2.0
1623779009.03125,0,0,0.0,0.0,2.0
1623779009.5,0,0,5.4092243641106075,0.0,2.0
1623779009.96875,0,0,4.004004383905946,0.0,2.0
1623779010.4375,0,0,0.0,0.0,2.0
1623779010.90625,0,0,5.36565469842706,0.0,2.0
1623779011.375,0,0,5.761967314260527,0.0,2.0
1623779011.84375,0,0,0.0,0.0,2.0
1623779012.3125,0,0,0.13503183864077697,0.0,2.0
1623779012.78125,0,0,0.0,0.0,2.0
1623779013.25,0,0,19.213847176837046,0.0,2.0
1623779013.71875,0,0,0.0,0.0,2.0
1623779014.1875,0,0,66.38230713712642,0.0,2.0
1623779014.65625,0,0,0.0,0.0,2.0
1623779015.125,0,0,21.537515502044055,0.0,2.0
1623779015.59375,0,0,255.25067125496787,0.0,2.0
1623779016.0625,0,0,0.0,0.0,2.0
1623779016.53125,0,0,297.3190574462699,0.0,2.0
1623779017.0,0,0,0.0,0.0,2.0
1623779017.46875,0,0,-33.50172851041931,0.0,2.0
1623779017.9375,0,0,9.439229632636124,0.0,2.0
1623779018.40625,0,0,15.045373754157088,0.0,2.0
1623779018.875,0,0,0.0,0.0,2.0
1623779019.34375,0,0,0.9343525437031341,0.0,2.0
1623779019.8125,0,0,0.0,0.0,2.0
1623779020.28125,0,0,7.185141510093946,0.0,2.0
1623779020.75,0,0,2.0775055662746174,0.0,2.0
1623779021.21875,0,0,1.9231602230373548,0.0,2.0
1623779021.6875,0,0,2.5787954068197916,0.0,2.0
1623779022.15625,0,0,0.0,0.0,2.0
1623779022.625,0,0,0.0,0.0,2.0
1623779023.09375,0,0,2.817201457474168,0.0,2.0
1623779023.5625,0,0,1.5203527780084825,0.0,2.0
1623779024.03125,0,0,15.467943171953417,0.0,2.0
1623779024.5,0,0,0.0,0.0,2.0
1623779024.96875,0,0,10.091844597461469,0.0,2.0
1623779025.4375,0,0,0.0,0.0,2.0
1623779025.90625,0,0,6.141381031156238,0.0,2.0
1623779026.375,0,0,8.744775780430672,0.0,2.0
1623779026.84375,0,0,0.0,0.0,2.0
1623779027.3125,0,0,0.0,0.0,2.0
1623779027.78125,0,0,0.0,0.0,2.0
1623779028.25,0,0,0.0,0.0,2.0
1623779028.71875,0,0,15.292473521052003,0.0,2.0
1623779029.1875,0,0,7.492733146881028,0.0,2.0
1623779029.65625,0,0,0.0,0.0,2.0
1623779030.125,0,0,4.157441339471821,0.0,2.0
1623779030.59375,0,0,5.2027917375577815,0.0,2.0
1623779031.0625,0,0,0.0,0.0,2.0
1623779031.53125,0,0,5.699442018228852,0.0,2.0
1623779032.0,0,0,0.0,0.0,2.0
1623779032.46875,0,0,4.880285107546666,0.0,2.0
1623779032.9375,0,0,0.0,0.0,2.0
1623779033.40625,0,0,4.79070498814037,0.0,2.0
1623779033.875,0,0,0.0,0.0,2.0
1623779034.34375,0,0,4.708556843888847,0.0,2.0
1623779034.8125,0,0,0.0,0.0,2.0
1623779035.28125,0,0,4.4709813365643996,0.0,2.0
1623779035.75,0,0,6.045187930253687,0.0,2.0
1623779036.21875,0,0,1.7720057159874256,0.0,2.0
1623779036.6875,0,0,6.248241550177191,0.0,2.0
1623779037.15625,0,0,0.0,0.0,2.0
1623779037.625,0,0,6.328420425901409,0.0,2.0
1623779038.09375,0,0,0.0,0.0,2.0
1623779038.5625,0,0,5.440805064006581,0.0,2.0
1623779039.03125,0,0,8.43533810453339,0.0,2.0
1623779039.5,0,0,1.5931508673136703,0.0,2.0
1623779039.96875,0,0,0.6527688789562882,0.0,2.0
1623779040.4375,0,0,8.520431389368484,0.0,2.0
1623779040.90625,0,0,0.0,0.0,2.0
1623779041.375,0,0,0.0,0.0,2.0
1623779041.84375,0,0,6.065979718435653,0.0,2.0
1623779042.3125,0,0,7.460861597278698,0.0,2.0
1623779042.78125,0,0,0.0,0.0,2.0
1623779043.25,0,0,4.734354894316702,0.0,2.0
1623779043.71875,0,0,6.424721119076912,0.0,2.0
1623779044.1875,0,0,3.8859301305466594,0.0,2.0
1623779044.65625,0,0,5.7419307031708104,0.0,2.0
1623779045.125,0,0,5.564998937849076,0.0,2.0
1623779045.59375,0,0,4.678186329889106,0.0,2.0
1623779046.0625,0,0,1.4636414242528781,0.0,2.0
1623779046.53125,0,0,3.5946564913279078,0.0,2.0
1623779047.0,0,0,3.1397540525622585,0.0,2.0
1623779047.46875,0,0,2.606308779614462,0.0,2.0
1623779047.9375,0,0,2.929836272757091,0.0,2.0
1623779048.40625,0,0,0.0,0.0,2.0
1623779048.875,0,0,3.692514401000431,0.0,2.0
1623779049.34375,0,0,2.59178414198365,0.0,2.0
1623779049.8125,0,0,0.0,0.0,2.0
1623779050.28125,0,0,-2.805340944800492,0.0,2.0
1623779050.75,0,0,0.0,0.0,2.0
1623779051.21875,0,0,0.0,0.0,2.0
1623779051.6875,0,0,4.343241465354267,0.0,2.0
1623779052.15625,0,0,3.3375455018558147,0.0,2.0
1623779052.625,0,0,3.2964393722651497,0.0,2.0
1623779053.09375,0,0,4.091207784946496,0.0,2.0
1623779053.5625,0,0,0.0,0.0,2.0
1623779054.03125,0,0,7.099729421703553,0.0,2.0
1623779054.5,0,0,4.546373745226965,0.0,2.0
1623779054.96875,0,0,0.0,0.0,2.0
1623779055.4375,0,0,5.702574595108836,0.0,2.0
1623779055.90625,0,0,6.775492399970282,0.0,2.0
1623779056.375,0,0,0.0,0.0,2.0
1623779056.84375,0,0,7.6802544836109385,0.0,2.0
1623779057.3125,0,0,7.663855119065375,0.0,2.0
1623779057.78125,0,0,0.0,0.0,2.0
1623779058.25,0,0,6.98973473835526,0.0,2.0
1623779058.71875,0,0,0.0,0.0,2.0
1623779059.1875,0,0,7.3196898144128495,0.0,2.0
1623779059.65625,0,0,8.093890130813485,0.0,2.0
1623779060.125,0,0,0.0,0.0,2.0
1623779060.59375,0,0,8.377191873414993,0.0,2.0
1623779061.0625,0,0,0.0,0.0,2.0
1623779061.53125,0,0,7.657155312380545,0.0,2.0
1623779062.0,0,0,0.0,0.0,2.0
1623779062.46875,0,0,0.0,0.0,2.0
1623779062.9375,0,0,0.0,0.0,2.0
1623779063.40625,0,0,5.116809381888365,0.0,2.0
1623779063.875,0,0,0.0,0.0,2.0
1623779064.34375,0,0,5.1484919378326515,0.0,2.0
1623779064.8125,0,0,0.0,0.0,2.0
1623779065.28125,0,0,5.275959414839155,0.0,2.0
1623779065.75,0,0,0.0,0.0,2.0
1623779066.21875,0,0,5.1088488315584675,0.0,2.0
1623779066.6875,0,0,0.0,0.0,2.0
1623779067.15625,0,0,0.0,0.0,2.0
1623779067.625,0,0,6.867335218037051,0.0,2.0
1623779068.09375,0,0,0.0,0.0,2.0
1623779068.5625,0,0,5.239491574263756,0.0,2.0
1623779069.03125,0,0,0.0,0.0,2.0
1623779069.5,0,0,7.708592773682209,0.0,2.0
1623779069.96875,0,0,7.898046221281223,0.0,2.0
1623779070.4375,0,0,3.622860193997056,0.0,2.0
1623779070.90625,0,0,7.385652172976802,0.0,2.0
1623779071.375,0,0,6.533320089846481,0.0,2.0
1623779071.84375,0,0,7.851193206912782,0.0,2.0
1623779072.3125,0,0,0.0,0.0,2.0
1623779072.78125,0,0,7.72603777592576,0.0,2.0
1623779073.25,0,0,0.0,0.0,2.0
1623779073.71875,0,0,8.120244962759765,0.0,2.0
1623779074.1875,0,0,7.628248158325667,0.0,2.0
1623779074.65625,0,0,5.754881246843702,0.0,2.0
1623779075.125,0,0,8.937232935304806,0.0,2.0
1623779075.59375,0,0,0.0,0.0,2.0
1623779076.0625,0,0,8.772831855344295,0.0,2.0
1623779076.53125,0,0,0.0,0.0,2.0
1623779077.0,0,0,7.307059272288124,0.0,2.0
1623779077.46875,0,0,9.358155351704568,0.0,2.0
1623779077.9375,0,0,4.696601581469271,0.0,2.0
1623779078.40625,0,0,7.434919172137794,0.0,2.0
1623779078.875,0,0,6.597381482276571,0.0,2.0
1623779079.34375,0,0,5.903903561244572,0.0,2.0
1623779079.8125,0,0,0.0,0.0,2.0
1623779080.28125,0,0,6.287170193502143,0.0,2.0
1623779080.75,0,0,7.2677440804787565,0.0,2.0
1623779081.21875,0,0,6.946155021681638,0.0,2.0
1623779081.6875,0,0,7.03608643936421,0.0,2.0
1623779082.15625,0,0,6.6631811005280035,0.0,2.0
1623779082.625,0,0,7.189274831366945,0.0,2.0
1623779083.09375,0,0,0.0,0.0,2.0
1623779083.5625,0,0,7.734223265378398,0.0,2.0
1623779084.03125,0,0,0.0,0.0,2.0
1623779084.5,0,0,6.234235186360247,0.0,2.0
1623779084.96875,0,0,7.552772115499875,0.0,2.0
1623779085.4375,0,0,0.0,0.0,2.0
1623779085.90625,0,0,6.864456594641183,0.0,2.0
1623779086.375,0,0,6.206821270718411,0.0,2.0
1623779086.84375,0,0,6.679152400959901,0.0,2.0
1623779087.3125,0,0,0.0,0.0,2.0
1623779087.78125,0,0,6.118741265210159,0.0,2.0
1623779088.25,0,0,0.0,0.0,2.0
1623779088.71875,0,0,8.461893264588602,0.0,2.0
1623779089.1875,0,0,6.51970108244179,0.0,2.0
1623779089.65625,0,0,4.499443043102232,0.0,2.0
1623779090.125,0,0,7.206752711723564,0.0,2.0
1623779090.59375,0,0,2.2100195792955386,0.0,2.0
1623779091.0625,0,0,8.67049281633661,0.0,2.0
1623779091.53125,0,0,7.805244688352089,0.0,2.0
1623779092.0,0,0,0.0,0.0,2.0
1623779092.46875,0,0,8.270527102197612,0.0,2.0
1623779092.9375,0,0,0.0,0.0,2.0
1623779093.40625,0,0,6.131985281304946,0.0,2.0
1623779093.875,0,0,7.190825453691064,0.0,2.0
1623779094.34375,0,0,0.0,0.0,2.0
1623779094.8125,0,0,7.802964221352313,0.0,2.0
1623779095.28125,0,0,0.0,0.0,2.0
1623779095.75,0,0,0.0,0.0,2.0
1623779096.21875,0,0,7.24360679242959,0.0,2.0
1623779096.6875,0,0,0.0,0.0,2.0
1623779097.15625,0,0,0.0,0.0,2.0
1623779097.625,0,0,8.610780624914565,0.0,2.0
1623779098.09375,0,0,14.159063733590038,0.0,2.0
1623779098.5625,0,0,0.0,0.0,2.0
1623779099.03125,0,0,83.95546317330425,0.0,2.0
1623779099.5,0,0,0.0,0.0,2.0
1623779099.96875,0,0,0.0,0.0,2.0
1623779100.4375,0,0,16.396001355950983,0.0,2.0
1623779100.90625,0,0,0.0,0.0,2.0
1623779101.375,0,0,7.510877569090999,0.0,2.0
1623779101.84375,0,0,0.0,0.0,2.0
1623779102.3125,0,0,2.331723641210502,0.0,2.0
1623779102.78125,0,0,6.56832902998656,0.0,2.0
1623779103.25,0,0,4.730339497155967,0.0,2.0
1623779103.71875,0,0,2.753391603811398,0.0,2.0
1623779104.1875,0,0,5.941563784993899,0.0,2.0
1623779104.65625,0,0,5.4173582367474555,0.0,2.0
1623779105.125,0,0,0.0,0.0,2.0
1623779105.59375,0,0,4.993450558485558,0.0,2.0
1623779106.0625,0,0,2.8950518124799323,0.0,2.0
1623779106.53125,0,0,1.947433935217547,0.0,2.0
1623779107.0,0,0,6.494359622237381,0.0,2.0
1623779107.46875,0,0,0.0,0.0,2.0
1623779107.9375,0,0,3.76432532467939,0.0,2.0
1623779108.40625,0,0,11.686406296012304,0.0,2.0
1623779108.875,0,0,4.3966381485884245,0.0,2.0
1623779109.34375,0,0,1.1193219978862743,0.0,2.0
1623779109.8125,0,0,2.6945806670275037,0.0,2.0
1623779110.28125,0,0,7.427642476180292,0.0,2.0
1623779110.75,0,0,7.281091505663854,0.0,2.0
1623779111.21875,0,0,2.2796233719920345,0.0,2.0
1623779111.6875,0,0,4.171534718876066,0.0,2.0
1623779112.15625,0,0,6.9556461915312955,0.0,2.0
1623779112.625,0,0,-0.07743703851407124,0.0,2.0
1623779113.09375,0,0,6.644333456064733,0.0,2.0
1623779113.5625,0,0,2.129153952591001,0.0,2.0
1623779114.03125,0,0,0.0,0.0,2.0
1623779114.5,0,0,7.797591810505649,0.0,2.0
1623779114.96875,0,0,6.193604785826837,0.0,2.0
1623779115.4375,0,0,0.0,0.0,2.0
1623779115.90625,0,0,-3.0845581219979445,0.0,2.0
1623779116.375,0,0,29.295850780632755,0.0,2.0
1623779116.84375,0,0,77.35114170894079,0.0,2.0
1623779117.3125,0,0,110.25272623289209,0.0,2.0
1623779117.78125,0,0,19.917844591491118,0.0,2.0
1623779118.25,0,0,60.920590217877375,0.0,2.0
1623779118.71875,0,0,45.946042424940224,0.0,2.0
1623779119.1875,0,0,11.127419083115237,0.0,2.0
1623779119.65625,0,0,-3.6324770545000895,0.0,2.0
1623779120.125,0,0,72.54243020329073,0.0,2.0
1623779120.59375,0,0,25.537822189664308,0.0,2.0
1623779121.0625,0,0,5.634612465442229,0.0,2.0
1623779121.53125,0,0,-7.694786509547756,0.0,2.0
1623779122.0,0,0,43.74026530906013,0.0,2.0
1623779122.46875,0,0,23.56277220728173,0.0,2.0
1623779122.9375,0,0,2.5431303714520856,0.0,2.0
1623779123.40625,0,0,0.0,0.0,2.0
1623779123.875,0,0,58.26699731396565,0.0,2.0
1623779124.34375,0,0,22.7238240962807,0.0,2.0
1623779124.8125,0,0,-6.059987592537484,0.0,2.0
1623779125.28125,0,0,-8.11106208019842,0.0,3.0
1623779125.75,0,0,124.63843465817598,0.0,3.0
1623779126.21875,0,0,-1.2009795425552838,0.0,3.0
1623779126.6875,0,0,0.0,0.0,3.0
1623779127.15625,0,0,257.1349831497954,0.0,3.0
1623779127.625,0,0,40.204869421251935,0.0,3.0
1623779128.09375,0,0,126.62740550188482,0.0,3.0
1623779128.5625,0,0,31.03283761196807,0.0,3.0
1623779129.03125,0,0,20.113052170353278,0.0,3.0
1623779129.5,0,0,15.516090293888736,0.0,3.0
1623779129.96875,0,0,0.0,0.0,3.0
1623779130.4375,0,0,11.280177282008033,0.0,3.0
1623779130.90625,0,0,12.242867686131472,0.0,3.0
1623779131.375,0,0,6.380549816121111,0.0,3.0
1623779131.84375,0,0,0.0,0.0,3.0
1623779132.3125,0,0,9.940876656462066,0.0,3.0
1623779132.78125,0,0,6.634938461288285,0.0,3.0
1623779133.25,0,0,0.0,0.0,3.0
1623779133.71875,0,0,8.199112076950342,0.0,3.0
1623779134.1875,0,0,5.194541409642811,0.0,3.0
1623779134.65625,0,0,4.3719922835522285,0.0,3.0
1623779135.125,0,0,9.218105478530989,0.0,3.0
1623779135.59375,0,0,0.0,0.0,3.0
1623779136.0625,0,0,7.420287747058052,0.0,3.0
1623779136.53125,0,0,0.0,0.0,3.0
1623779137.0,0,0,5.575827667529316,0.0,3.0
1623779137.46875,0,0,5.411791609171224,0.0,3.0
1623779137.9375,0,0,0.0,0.0,3.0
1623779138.40625,0,0,6.951193867696364,0.0,3.0
1623779138.875,0,0,5.940629469137931,0.0,3.0
1623779139.34375,0,0,0.0,0.0,3.0
1623779139.8125,0,0,0.0,0.0,3.0
1623779140.28125,0,0,8.012857980405206,0.0,3.0
1623779140.75,0,0,0.0,0.0,3.0
1623779141.21875,0,0,5.832600538081345,0.0,3.0
1623779141.6875,0,0,5.53484559533498,0.0,3.0
1623779142.15625,0,0,0.0,0.0,3.0
1623779142.625,0,0,4.799576698683665,0.0,3.0
1623779143.09375,0,0,0.0,0.0,3.0
1623779143.5625,0,0,5.658697766286244,0.0,3.0
1623779144.03125,0,0,0.0,0.0,3.0
1623779144.5,0,0,4.5112116127879585,0.0,3.0
1623779144.96875,0,0,4.310100716227856,0.0,3.0
1623779145.4375,0,0,2.5948965375556905,0.0,3.0
1623779145.90625,0,0,5.620591891090723,0.0,3.0
1623779146.375,0,0,9.85502831040363,0.0,3.0
1623779146.84375,0,0,0.0,0.0,3.0
1623779147.3125,0,0,4.918417751927443,0.0,3.0
1623779147.78125,0,0,0.0,0.0,3.0
1623779148.25,0,0,5.542780892285694,0.0,3.0
1623779148.71875,0,0,6.261906758370997,0.0,3.0
1623779149.1875,0,0,2.4859272713473755,0.0,3.0
1623779149.65625,0,0,5.6781699641409595,0.0,3.0
1623779150.125,0,0,6.286678885329375,0.0,3.0
1623779150.59375,0,0,7.269507183455768,0.0,3.0
1623779151.0625,0,0,0.0,0.0,3.0
1623779151.53125,0,0,5.636052027402756,0.0,3.0
1623779152.0,0,0,0.0,0.0,3.0
1623779152.46875,0,0,7.49849947535665,0.0,3.0
1623779152.9375,0,0,4.10641059339836,0.0,3.0
1623779153.40625,0,0,3.6261964036811962,0.0,3.0
1623779153.875,0,0,7.465182328792592,0.0,3.0
1623779154.34375,0,0,0.0,0.0,3.0
1623779154.8125,0,0,4.523984884455112,0.0,3.0
1623779155.28125,0,0,5.5180499827692895,0.0,3.0
1623779155.75,0,0,0.0,0.0,3.0
1623779156.21875,0,0,0.0,0.0,3.0
1623779156.6875,0,0,5.805036663077253,0.0,3.0
1623779157.15625,0,0,3.6750524486074445,0.0,3.0
1623779157.625,0,0,3.0202832705791223,0.0,3.0
1623779158.09375,0,0,6.407342718642564,0.0,3.0
1623779158.5625,0,0,4.409287864300523,0.0,3.0
1623779159.03125,0,0,1.0430932832894377,0.0,3.0
1623779159.5,0,0,5.012619084820061,0.0,3.0
1623779159.96875,0,0,0.0,0.0,3.0
1623779160.4375,0,0,6.484002390559724,0.0,3.0
1623779160.90625,0,0,0.0,0.0,3.0
1623779161.375,0,0,7.233108696930493,0.0,3.0
1623779161.84375,0,0,0.0,0.0,3.0
1623779162.3125,0,0,5.269539621007505,0.0,3.0
1623779162.78125,0,0,5.210933280515612,0.0,3.0
1623779163.25,0,0,5.5010091412237365,0.0,3.0
1623779163.71875,0,0,6.716560012391501,0.0,3.0
1623779164.1875,0,0,0.0,0.0,3.0
1623779164.65625,0,0,6.786130063932371,0.0,3.0
1623779165.125,0,0,6.404993548137728,0.0,3.0
1623779165.59375,0,0,0.0,0.0,3.0
1623779166.0625,0,0,3.954378907786585,0.0,3.0
1623779166.53125,0,0,0.0,0.0,3.0
1623779167.0,0,0,4.0421594727654355,0.0,3.0
1623779167.46875,0,0,0.0,0.0,3.0
1623779167.9375,0,0,6.4877391391433585,0.0,3.0
1623779168.40625,0,0,6.45935009621021,0.0,3.0
1623779168.875,0,0,0.0,0.0,3.0
1623779169.34375,0,0,5.705221583159865,0.0,3.0
1623779169.8125,0,0,0.0,0.0,3.0
1623779170.28125,0,0,4.520844231902114,0.0,3.0
1623779170.75,0,0,0.0,0.0,3.0
1623779171.21875,0,0,5.561603859074834,0.0,3.0
1623779171.6875,0,0,0.0,0.0,3.0
1623779172.15625,0,0,5.75327722253165,0.0,3.0
1623779172.625,0,0,3.1170571279313517,0.0,3.0
1623779173.09375,0,0,4.726377772990548,0.0,3.0
1623779173.5625,0,0,0.5711905985772465,0.0,3.0
1623779174.03125,0,0,0.0,0.0,3.0
1623779174.5,0,0,5.158685257314596,0.0,3.0
1623779174.96875,0,0,0.0,0.0,3.0
1623779175.4375,0,0,5.010710994246101,0.0,3.0
1623779175.90625,0,0,3.62078243956372,0.0,3.0
1623779176.375,0,0,0.0,0.0,3.0
1623779176.84375,0,0,4.261762902356671,0.0,3.0
1623779177.3125,0,0,0.0,0.0,3.0
1623779177.78125,0,0,3.6484566103654745,0.0,3.0
1623779178.25,0,0,-0.6313292180568298,0.0,3.0
1623779178.71875,0,0,13.005910557140144,0.0,3.0
1623779179.1875,0,0,0.0,0.0,3.0
1623779179.65625,0,0,45.91842856114597,0.0,3.0
1623779180.125,0,0,28.671902356258872,0.0,3.0
1623779180.59375,0,0,0.0,0.0,3.0
1623779181.0625,0,0,8.722112339146108,0.0,3.0
1623779181.53125,0,0,5.223550707709812,0.0,3.0
1623779182.0,0,0,8.26455383185047,0.0,3.0
1623779182.46875,0,0,0.0,0.0,3.0
1623779182.9375,0,0,9.37492495206266,0.0,3.0
1623779183.40625,0,0,0.0,0.0,3.0
1623779183.875,0,0,4.7847797656338,0.0,3.0
1623779184.34375,0,0,0.0,0.0,3.0
1623779184.8125,0,0,6.026612717476367,0.0,3.0
1623779185.28125,0,0,3.816660553628209,0.0,3.0
1623779185.75,0,0,11.001634868391466,0.0,3.0
1623779186.21875,0,0,2.7081789577615996,0.0,3.0
1623779186.6875,0,0,0.9539819075201081,0.0,3.0
1623779187.15625,0,0,7.077523951188661,0.0,3.0
1623779187.625,0,0,5.694304703786791,0.0,3.0
1623779188.09375,0,0,2.4489720056601607,0.0,3.0
1623779188.5625,0,0,2.1163082333499155,0.0,3.0
1623779189.03125,0,0,3.208767826702007,0.0,3.0
1623779189.5,0,0,0.0,0.0,3.0
1623779189.96875,0,0,4.703707652075581,0.0,3.0
1623779190.4375,0,0,-0.931781457835076,0.0,3.0
1623779190.90625,0,0,0.40650035906862314,0.0,3.0
1623779191.375,0,0,3.1061541682044242,0.0,3.0
1623779191.84375,0,0,0.6705570603982093,0.0,3.0
1623779192.3125,0,0,-0.3052800179115798,0.0,3.0
1623779192.78125,0,0,2.070926998520949,0.0,3.0
1623779193.25,0,0,2.0388469029410783,0.0,3.0
1623779193.71875,0,0,5.779444891068815,0.0,3.0
1623779194.1875,0,0,3.6439385639764903,0.0,3.0
1623779194.65625,0,0,3.0956631654604436,0.0,3.0
1623779195.125,0,0,6.298838486533471,0.0,3.0
1623779195.59375,0,0,5.11042879906626,0.0,3.0
1623779196.0625,0,0,0.0,0.0,3.0
1623779196.53125,0,0,4.9785747760515795,0.0,3.0
1623779197.0,0,0,4.1059975965384385,0.0,3.0
1623779197.46875,0,0,4.208760936841401,0.0,3.0
1623779197.9375,0,0,9.44515753215443,0.0,3.0
1623779198.40625,0,0,8.99030928513746,0.0,3.0
1623779198.875,0,0,0.0,0.0,3.0
1623779199.34375,0,0,8.511795420769719,0.0,3.0
1623779199.8125,0,0,0.0,0.0,3.0
1623779200.28125,0,0,6.765994623547256,0.0,3.0
1623779200.75,0,0,7.72521670272006,0.0,3.0
1623779201.21875,0,0,0.0,0.0,3.0
1623779201.6875,0,0,8.695202060651535,0.0,3.0
1623779202.15625,0,0,9.728000449683547,0.0,3.0
1623779202.625,0,0,0.0,0.0,3.0
1623779203.09375,0,0,8.653654659668089,0.0,3.0
1623779203.5625,0,0,7.107687358283678,0.0,3.0
1623779204.03125,0,0,0.0,0.0,3.0
1623779204.5,0,0,7.16344292327086,0.0,3.0
1623779204.96875,0,0,0.0,0.0,3.0
1623779205.4375,0,0,3.6563313126914823,0.0,3.0
1623779205.90625,0,0,5.52947228184232,0.0,3.0
1623779206.375,0,0,4.86677130918833,0.0,3.0
1623779206.84375,0,0,4.651385143742416,0.0,3.0
1623779207.3125,0,0,7.037263878038398,0.0,3.0
1623779207.78125,0,0,1.2365640988639768,0.0,3.0
1623779208.25,0,0,5.024363801940281,0.0,3.0
1623779208.71875,0,0,2.2140448481537804,0.0,3.0
1623779209.1875,0,0,4.097801110415672,0.0,3.0
1623779209.65625,0,0,5.711500292285266,0.0,3.0
1623779210.125,0,0,5.0402160979612205,0.0,3.0
1623779210.59375,0,0,4.162578724024227,0.0,3.0
1623779211.0625,0,0,0.0,0.0,3.0
1623779211.53125,0,0,0.0,0.0,3.0
1623779212.0,0,0,4.23530859505858,0.0,3.0
1623779212.46875,0,0,0.0,0.0,3.0
1623779212.9375,0,0,4.769914626083088,0.0,3.0
1623779213.40625,0,0,3.851676788550495,0.0,3.0
1623779213.875,0,0,2.979594106648937,0.0,3.0
1623779214.34375,0,0,2.753728638279755,0.0,3.0
1623779214.8125,0,0,0.0,0.0,3.0
1623779215.28125,0,0,4.47745274263962,0.0,3.0
1623779215.75,0,0,4.80252206180029,0.0,3.0
1623779216.21875,0,0,0.0,0.0,3.0
1623779216.6875,0,0,4.812899582816649,0.0,3.0
1623779217.15625,0,0,0.0,0.0,3.0
1623779217.625,0,0,5.39358586214449,0.0,3.0
1623779218.09375,0,0,4.344300105611672,0.0,3.0
1623779218.5625,0,0,2.5765903823303358,0.0,3.0
1623779219.03125,0,0,5.244027610083933,0.0,3.0
1623779219.5,0,0,0.0,0.0,3.0
1623779219.96875,0,0,5.386369563692876,0.0,3.0
1623779220.4375,0,0,3.797409733076459,0.0,3.0
1623779220.90625,0,0,3.4707896326892214,0.0,3.0
1623779221.375,0,0,4.2469877447571065,0.0,3.0
1623779221.84375,0,0,2.887420181422844,0.0,3.0
1623779222.3125,0,0,3.1254348955498106,0.0,3.0
1623779222.78125,0,0,5.143383941255417,0.0,3.0
1623779223.25,0,0,0.0,0.0,3.0
1623779223.71875,0,0,5.050397588309955,0.0,3.0
1623779224.1875,0,0,0.0,0.0,3.0
1623779224.65625,0,0,4.418426039600357,0.0,3.0
1623779225.125,0,0,2.7349006746114046,0.0,3.0
1623779225.59375,0,0,0.0,0.0,3.0
1623779226.0625,0,0,3.2015056671896396,0.0,3.0
1623779226.53125,0,0,3.8042883209836296,0.0,3.0
1623779227.0,0,0,3.73937987615998,0.0,3.0
1623779227.46875,0,0,3.9210272972507783,0.0,3.0
1623779227.9375,0,0,0.0,0.0,3.0
1623779228.40625,0,0,3.1823782426529204,0.0,3.0
1623779228.875,0,0,4.369404248389055,0.0,3.0
1623779229.34375,0,0,0.0,0.0,3.0
1623779229.8125,0,0,4.358434913520876,0.0,3.0
1623779230.28125,0,0,0.0,0.0,3.0
1623779230.75,0,0,4.004223479953371,0.0,3.0
1623779231.21875,0,0,3.1347186944501577,0.0,3.0
1623779231.6875,0,0,0.10111114807034792,0.0,3.0
1623779232.15625,0,0,3.208764996150955,0.0,3.0
1623779232.625,0,0,1.071565631959631,0.0,3.0
1623779233.09375,0,0,3.576634102251374,0.0,3.0
1623779233.5625,0,0,2.9013699946451927,0.0,3.0
1623779234.03125,0,0,2.6908176373189288,0.0,3.0
1623779234.5,0,0,3.690903824785412,0.0,3.0
1623779234.96875,0,0,5.4763864653022525,0.0,3.0
1623779235.4375,0,0,-0.3156281272543553,0.0,3.0
1623779235.90625,0,0,1.516292871244065,0.0,3.0
1623779236.375,0,0,0.0,0.0,3.0
1623779236.84375,0,0,0.0,0.0,3.0
1623779237.3125,0,0,73.3646795240538,0.0,3.0
1623779237.78125,0,0,72.03590726303149,0.0,3.0
1623779238.25,0,0,0.0,0.0,3.0
1623779238.71875,0,0,-20.61853422333218,0.0,3.0
1623779239.1875,0,0,55.42836094225153,0.0,3.0
1623779239.65625,0,0,0.0,0.0,3.0
1623779240.125,0,0,13.166089671987116,0.0,3.0
1623779240.59375,0,0,7.031458965562951,0.0,3.0
1623779241.0625,0,0,0.0,0.0,3.0
1623779241.53125,0,0,5.433231114544373,0.0,3.0
1623779242.0,0,0,5.914445523026192,0.0,3.0
1623779242.46875,0,0,0.0,0.0,3.0
1623779242.9375,0,0,4.837229873439548,0.0,3.0
1623779243.40625,0,0,3.744691131749744,0.0,3.0
1623779243.875,0,0,5.7177747376125625,0.0,3.0
1623779244.34375,0,0,2.5601514879600122,0.0,3.0
1623779244.8125,0,0,0.0,0.0,3.0
1623779245.28125,0,0,3.800919793082382,0.0,3.0
1623779245.75,0,0,4.62733457554293,0.0,3.0
1623779246.21875,0,0,0.0,0.0,3.0
1623779246.6875,0,0,1.5007917673005013,0.0,3.0
1623779247.15625,0,0,0.0,0.0,3.0
1623779247.625,0,0,130.05625233794007,0.0,3.0
1623779248.09375,0,0,23.680971950264432,0.0,3.0
1623779248.5625,0,0,6.752253949500798,0.0,3.0
1623779249.03125,0,0,16.76294778997694,0.0,3.0
1623779249.5,0,0,0.0,0.0,3.0
1623779249.96875,0,0,0.0,0.0,3.0
1623779250.4375,0,0,4.222779451539349,0.0,3.0
1623779250.90625,0,0,5.530797522123788,0.0,3.0
1623779251.375,0,0,-2.810071101644667,0.0,3.0
1623779251.84375,0,0,6.846706622557121,0.0,3.0
1623779252.3125,0,0,6.327646581959216,0.0,3.0
1623779252.78125,0,0,0.0,0.0,3.0
1623779253.25,0,0,6.36234244113092,0.0,3.0
1623779253.71875,0,0,5.537009232057596,0.0,3.0
1623779254.1875,0,0,0.0,0.0,3.0
1623779254.65625,0,0,0.0,0.0,3.0
1623779255.125,0,0,4.405444123240138,0.0,3.0
1623779255.59375,0,0,0.0,0.0,3.0
1623779256.0625,0,0,21.441130626001016,0.0,3.0
1623779256.53125,0,0,80.47213647269866,0.0,3.0
1623779257.0,0,0,108.89280777338207,0.0,3.0
1623779257.46875,0,0,-5.079459349378932,0.0,3.0
1623779257.9375,0,0,59.78389394980777,0.0,3.0
1623779258.40625,0,0,0.0,0.0,3.0
1623779258.875,0,0,17.019546811324492,0.0,3.0
1623779259.34375,0,0,4.174840518545282,0.0,3.0
1623779259.8125,0,0,0.0,0.0,3.0
1623779260.28125,0,0,6.854060649370846,0.0,3.0
1623779260.75,0,0,5.756130583928687,0.0,3.0
1623779261.21875,0,0,0.0,0.0,3.0
1623779261.6875,0,0,5.127025256912544,0.0,3.0
1623779262.15625,0,0,0.0,0.0,3.0
1623779262.625,0,0,5.525412783912314,0.0,3.0
1623779263.09375,0,0,3.3699006690576745,0.0,3.0
1623779263.5625,0,0,3.769326828767879,0.0,3.0
1623779264.03125,0,0,4.190751784674443,0.0,3.0
1623779264.5,0,0,2.199529064074168,0.0,3.0
1623779264.96875,0,0,1.7733478362079247,0.0,3.0
1623779265.4375,0,0,2.1950272560007806,0.0,3.0
1623779265.90625,0,0,4.650062292330888,0.0,3.0
1623779266.375,0,0,0.0,0.0,3.0
1623779266.84375,0,0,4.375708352963257,0.0,3.0
1623779267.3125,0,0,5.258467002008609,0.0,3.0
1623779267.78125,0,0,0.0,0.0,3.0
1623779268.25,0,0,6.5949955473321165,0.0,3.0
1623779268.71875,0,0,0.4586131277148291,0.0,3.0
1623779269.1875,0,0,3.406055880828237,0.0,3.0
1623779269.65625,0,0,2.5242049013637096,0.0,3.0
1623779270.125,0,0,4.796953165320041,0.0,3.0
1623779270.59375,0,0,4.000087038132569,0.0,3.0
1623779271.0625,0,0,4.759469260473464,0.0,3.0
1623779271.53125,0,0,0.0,0.0,3.0
1623779272.0,0,0,4.516936311984794,0.0,3.0
1623779272.46875,0,0,0.0,0.0,3.0
1623779272.9375,0,0,2.359103556036948,0.0,3.0
1623779273.40625,0,0,8.901806754024115,0.0,3.0
1623779273.875,0,0,0.0,0.0,3.0
1623779274.34375,0,0,4.8125193092663325,0.0,3.0
1623779274.8125,0,0,4.528483338430022,0.0,3.0
1623779275.28125,0,0,1.6358282526061636,0.0,3.0
1623779275.75,0,0,4.007701390843243,0.0,3.0
1623779276.21875,0,0,0.0,0.0,3.0
1623779276.6875,0,0,4.540277031068254,0.0,3.0
1623779277.15625,0,0,2.71543390170704,0.0,3.0
1623779277.625,0,0,0.0,0.0,3.0
1623779278.09375,0,0,3.0108997038154137,0.0,3.0
1623779278.5625,0,0,3.944568927632022,0.0,3.0
1623779279.03125,0,0,2.7281136803236583,0.0,3.0
1623779279.5,0,0,3.3504629534438237,0.0,3.0
1623779279.96875,0,0,3.352540122925597,0.0,3.0
1623779280.4375,0,0,0.6520030201460588,0.0,3.0
