timestamp,mean_pulse_rate,pulse_rate_std,mean_pulse_amplitude,pulse_amplitude_std,block
1624262445.9375,0,0,0.0,0.0,1.0
1624262446.40625,0,0,296.2775884843307,0.0,1.0
1624262446.875,0,0,160.94245956414076,0.0,1.0
1624262447.34375,0,0,-93.59724192368883,0.0,1.0
1624262447.8125,0,0,0.0,0.0,1.0
1624262448.28125,0,0,67.9068919992743,0.0,1.0
1624262448.75,0,0,51.27580911058433,0.0,1.0
1624262449.21875,0,0,-2.01737654045203,0.0,1.0
1624262449.6875,0,0,42.02716984675417,0.0,1.0
1624262450.15625,0,0,24.853384165689388,0.0,1.0
1624262450.625,0,0,3.493749404525097,0.0,1.0
1624262451.09375,0,0,26.29809217978155,0.0,1.0
1624262451.5625,0,0,2.0935691369634997,0.0,1.0
1624262452.03125,0,0,83.66999083287155,0.0,1.0
1624262452.5,0,0,0.0,0.0,1.0
1624262452.96875,0,0,0.0,0.0,1.0
1624262453.4375,0,0,29.89069351572878,0.0,1.0
1624262453.90625,0,0,28.916085533816815,0.0,1.0
1624262454.375,0,0,25.4616497029819,0.0,1.0
1624262454.84375,0,0,61.05473770460111,0.0,1.0
1624262455.3125,0,0,52.32698085500472,0.0,1.0
1624262455.78125,0,0,11.35701416792281,0.0,1.0
1624262456.25,0,0,0.0,0.0,1.0
1624262456.71875,0,0,25.35889702834511,0.0,1.0
1624262457.1875,0,0,22.079858462959034,0.0,1.0
1624262457.65625,0,0,42.064042753026435,0.0,1.0
1624262458.125,0,0,0.0,0.0,1.0
1624262458.59375,0,0,34.25465985316725,0.0,1.0
1624262459.0625,0,0,0.0,0.0,1.0
1624262459.53125,0,0,93.93475290777003,0.0,1.0
1624262460.0,0,0,32.19562711745176,0.0,1.0
1624262460.46875,0,0,17.95387460789624,0.0,1.0
1624262460.9375,0,0,64.56423535869773,0.0,1.0
1624262461.40625,0,0,0.0,0.0,1.0
1624262461.875,0,0,29.175580063582974,0.0,1.0
1624262462.34375,0,0,22.445831509145435,0.0,1.0
1624262462.8125,0,0,0.0,0.0,1.0
1624262463.28125,0,0,25.991107871633403,0.0,1.0
1624262463.75,0,0,18.086675667983755,0.0,1.0
1624262464.21875,0,0,15.49938762674314,0.0,1.0
1624262464.6875,0,0,48.31960999608011,0.0,1.0
1624262465.15625,0,0,0.0,0.0,1.0
1624262465.625,0,0,20.406283084814916,0.0,1.0
1624262466.09375,0,0,134.72622525164746,0.0,1.0
1624262466.5625,0,0,40.27220078700731,0.0,1.0
1624262467.03125,0,0,38.5195603205882,0.0,1.0
1624262467.5,0,0,26.78592052669822,0.0,1.0
1624262467.96875,0,0,0.0,0.0,1.0
1624262468.4375,0,0,82.86466213252146,0.0,1.0
1624262468.90625,0,0,14.621156989064227,0.0,1.0
1624262469.375,0,0,66.78441621691012,0.0,1.0
1624262469.84375,0,0,0.0,0.0,1.0
1624262470.3125,0,0,38.55186594330599,0.0,1.0
1624262470.78125,0,0,18.59358256447539,0.0,1.0
1624262471.25,0,0,-5.579014564084057,0.0,1.0
1624262471.71875,0,0,10.146316367941486,0.0,1.0
1624262472.1875,0,0,13.300699330615684,0.0,1.0
1624262472.65625,0,0,0.0,0.0,1.0
1624262473.125,0,0,0.0,0.0,1.0
1624262473.59375,0,0,38.83802826756834,0.0,1.0
1624262474.0625,0,0,17.50708088474477,0.0,1.0
1624262474.53125,0,0,40.1553330845739,0.0,1.0
1624262475.0,0,0,20.67775489676371,0.0,1.0
1624262475.46875,0,0,4.4150082372115635,0.0,1.0
1624262475.9375,0,0,-0.8284957502416003,0.0,1.0
1624262476.40625,0,0,112.62328312527794,0.0,1.0
1624262476.875,0,0,15.670918408848445,0.0,1.0
1624262477.34375,0,0,29.014216839251816,0.0,1.0
1624262477.8125,0,0,18.54853262748184,0.0,1.0
1624262478.28125,0,0,116.38000484170668,0.0,1.0
1624262478.75,0,0,0.0,0.0,1.0
1624262479.21875,0,0,42.04558858137097,0.0,1.0
1624262479.6875,0,0,20.391600779029048,0.0,1.0
1624262480.15625,0,0,107.58687107585877,0.0,1.0
1624262480.625,0,0,0.0,0.0,1.0
1624262481.09375,0,0,-1.1998779219777251,0.0,1.0
1624262481.5625,0,0,20.066822430835582,0.0,1.0
1624262482.03125,0,0,80.44626755133774,0.0,1.0
1624262482.5,0,0,62.272380753212886,0.0,1.0
1624262482.96875,0,0,-2.683441555175218,0.0,1.0
1624262483.4375,0,0,0.0,0.0,1.0
1624262483.90625,0,0,113.51106581580191,0.0,1.0
1624262484.375,0,0,30.28562863558254,0.0,1.0
1624262484.84375,0,0,32.34462667990982,0.0,1.0
1624262485.3125,0,0,22.329657555973363,0.0,1.0
1624262485.78125,0,0,89.56314444560886,0.0,1.0
1624262486.25,0,0,17.571182831288873,0.0,1.0
1624262486.71875,0,0,11.097819260945554,0.0,1.0
1624262487.1875,0,0,12.641132403622695,0.0,1.0
1624262487.65625,0,0,0.0,0.0,1.0
1624262488.125,0,0,47.838325301718655,0.0,1.0
1624262488.59375,0,0,0.0,0.0,1.0
1624262489.0625,0,0,17.842080625319632,0.0,1.0
1624262489.53125,0,0,77.54038866915599,0.0,1.0
1624262490.0,0,0,26.636004293691,0.0,1.0
1624262490.46875,0,0,-1.9222458522128256,0.0,1.0
1624262490.9375,0,0,10.165290144144757,0.0,1.0
1624262491.40625,0,0,61.49117120694774,0.0,1.0
1624262491.875,0,0,49.87444516206196,0.0,1.0
1624262492.34375,0,0,0.0,0.0,1.0
1624262492.8125,0,0,14.93270048225113,0.0,1.0
1624262493.28125,0,0,84.26263495827403,0.0,1.0
1624262493.75,0,0,25.220282872423486,0.0,1.0
1624262494.21875,0,0,1.3081370851098548,0.0,1.0
1624262494.6875,0,0,14.72958446685921,0.0,1.0
1624262495.15625,0,0,77.07060356030017,0.0,1.0
1624262495.625,0,0,49.85971555341289,0.0,1.0
1624262496.09375,0,0,0.0,0.0,1.0
1624262496.5625,0,0,-0.7510443782989812,0.0,1.0
1624262497.03125,0,0,167.66721300529207,0.0,1.0
1624262497.5,0,0,36.59982043293263,0.0,1.0
1624262497.96875,0,0,53.1175506842544,0.0,1.0
1624262498.4375,0,0,9.425816686360621,0.0,1.0
1624262498.90625,0,0,64.15170696545701,0.0,1.0
1624262499.375,0,0,80.23037059096085,0.0,1.0
1624262499.84375,0,0,0.0,0.0,1.0
1624262500.3125,0,0,0.0,0.0,1.0
1624262500.78125,0,0,-9.57179924701291,0.0,1.0
1624262501.25,0,0,0.0,0.0,1.0
1624262501.71875,0,0,-5.725275445708607,0.0,1.0
1624262502.1875,0,0,16.37279363135723,0.0,1.0
1624262502.65625,0,0,0.0,0.0,1.0
1624262503.125,0,0,74.13125979839398,0.0,1.0
1624262503.59375,0,0,0.0,0.0,1.0
1624262504.0625,0,0,13.276840407348358,0.0,1.0
1624262504.53125,0,0,-6.995355159277168,0.0,1.0
1624262505.0,0,0,-7.486639403437862,0.0,1.0
1624262505.46875,0,0,-0.887872105348939,0.0,1.0
1624262505.9375,0,0,15.702335905464327,0.0,1.0
1624262506.40625,0,0,0.0,0.0,1.0
1624262506.875,0,0,31.785685063034638,0.0,1.0
1624262507.34375,0,0,10.358114667282681,0.0,1.0
1624262507.8125,0,0,1.9541563731690517,0.0,1.0
1624262508.28125,0,0,0.0,0.0,1.0
1624262508.75,0,0,35.832690681449286,0.0,1.0
1624262509.21875,0,0,0.0,0.0,1.0
1624262509.6875,0,0,0.0,0.0,1.0
1624262510.15625,0,0,90.87213021359159,0.0,1.0
1624262510.625,0,0,4.778230981197694,0.0,1.0
1624262511.09375,0,0,-5.0776776728569715,0.0,1.0
1624262511.5625,0,0,14.896094979246847,0.0,1.0
1624262512.03125,0,0,0.0,0.0,1.0
1624262512.5,0,0,15.74541013266989,0.0,1.0
1624262512.96875,0,0,9.45123780989716,0.0,1.0
1624262513.4375,0,0,0.0,0.0,1.0
1624262513.90625,0,0,-2.7580869655112172,0.0,1.0
1624262514.375,0,0,30.11775664460342,0.0,1.0
1624262514.84375,0,0,0.0,0.0,1.0
1624262515.3125,0,0,0.040893256125362515,0.0,1.0
1624262515.78125,0,0,44.24956318616594,0.0,1.0
1624262516.25,0,0,0.0,0.0,1.0
1624262516.71875,0,0,12.618394592482531,0.0,1.0
1624262517.1875,0,0,0.0,0.0,1.0
1624262517.65625,0,0,52.46121095919601,0.0,1.0
1624262518.125,0,0,22.648519804292185,0.0,1.0
1624262518.59375,0,0,21.63719646440553,0.0,1.0
1624262519.0625,0,0,23.767558322795416,0.0,1.0
1624262519.53125,0,0,0.0,0.0,1.0
1624262520.0,0,0,9.515426138816153,0.0,1.0
1624262520.46875,0,0,-6.214033915493156,0.0,1.0
1624262520.9375,0,0,15.418015440078786,0.0,1.0
1624262521.40625,0,0,14.148245333975758,0.0,1.0
1624262521.875,0,0,36.47433690596879,0.0,1.0
1624262522.34375,0,0,0.0,0.0,1.0
1624262522.8125,0,0,-0.4994203982722969,0.0,1.0
1624262523.28125,0,0,30.9760158976601,0.0,1.0
1624262523.75,0,0,35.07382732962403,0.0,1.0
1624262524.21875,0,0,0.0,0.0,1.0
1624262524.6875,0,0,34.958293821951,0.0,1.0
1624262525.15625,0,0,7.388840098089339,0.0,1.0
1624262525.625,0,0,0.0,0.0,1.0
1624262526.09375,0,0,0.0,0.0,1.0
1624262526.5625,0,0,2.8851301202043858,0.0,1.0
1624262527.03125,0,0,14.839842637463434,0.0,1.0
1624262527.5,0,0,172.43575081797226,0.0,1.0
1624262527.96875,0,0,-27.809257305645612,0.0,1.0
1624262528.4375,0,0,26.18821779732772,0.0,1.0
1624262528.90625,0,0,-15.70088642548356,0.0,1.0
1624262529.375,0,0,185.59767285918187,0.0,1.0
1624262529.84375,0,0,0.0,0.0,1.0
1624262530.3125,0,0,7.604797928144655,0.0,1.0
1624262530.78125,0,0,0.4506427929631254,0.0,1.0
1624262531.25,0,0,147.073287109209,0.0,1.0
1624262531.71875,0,0,-5.6749484540927275,0.0,1.0
1624262532.1875,0,0,17.087880567248256,0.0,1.0
1624262532.65625,0,0,-41.04640609754025,0.0,1.0
1624262533.125,0,0,187.32614524316708,0.0,1.0
1624262533.59375,0,0,10.404709001478647,0.0,1.0
1624262534.0625,0,0,11.101475116506286,0.0,1.0
1624262534.53125,0,0,0.0,0.0,1.0
1624262535.0,0,0,167.47184887795464,0.0,1.0
1624262535.46875,0,0,-30.842565707233515,0.0,1.0
1624262535.9375,0,0,16.821402104225932,0.0,1.0
1624262536.40625,0,0,-24.461736949976565,0.0,1.0
1624262536.875,0,0,196.673092507308,0.0,1.0
1624262537.34375,0,0,-21.31958378864562,0.0,1.0
1624262537.8125,0,0,0.0,0.0,1.0
1624262538.28125,0,0,17.066171770365603,0.0,1.0
1624262538.75,0,0,182.37041248333242,0.0,1.0
1624262539.21875,0,0,31.113686970777678,0.0,1.0
1624262539.6875,0,0,0.0,0.0,1.0
1624262540.15625,0,0,35.75534222200373,0.0,1.0
1624262540.625,0,0,3.105396374464652,0.0,1.0
1624262541.09375,0,0,27.44976836669744,0.0,1.0
1624262541.5625,0,0,-0.015175097072279983,0.0,1.0
1624262542.03125,0,0,0.0,0.0,1.0
1624262542.5,0,0,-39.475697426112355,0.0,1.0
1624262542.96875,0,0,28.143188209221844,0.0,1.0
1624262543.4375,0,0,-0.7294932861232386,0.0,1.0
1624262543.90625,0,0,1.9984314433812607,0.0,1.0
1624262544.375,0,0,262.7282122549404,0.0,1.0
1624262544.84375,0,0,10.94498248842502,0.0,1.0
1624262545.3125,0,0,22.801332279488758,0.0,1.0
1624262545.78125,0,0,6.20667403487509,0.0,1.0
1624262546.25,0,0,272.9364749790998,0.0,1.0
1624262546.71875,0,0,31.765324896040834,0.0,1.0
1624262547.1875,0,0,28.880418278810353,0.0,1.0
1624262547.65625,0,0,0.0,0.0,1.0
1624262548.125,0,0,268.9982352578788,0.0,1.0
1624262548.59375,0,0,12.298367276845442,0.0,1.0
1624262549.0625,0,0,16.152927249733942,0.0,1.0
1624262549.53125,0,0,241.23244405697844,0.0,1.0
1624262550.0,0,0,21.456019936410307,0.0,1.0
1624262550.46875,0,0,8.015718181183818,0.0,1.0
1624262550.9375,0,0,13.303879182338857,0.0,1.0
1624262551.40625,0,0,183.57046664974592,0.0,1.0
1624262551.875,0,0,-11.74890031782432,0.0,1.0
1624262552.34375,0,0,0.0,0.0,1.0
1624262552.8125,0,0,0.0,0.0,1.0
1624262553.28125,0,0,-26.65372471276004,0.0,1.0
1624262553.75,0,0,-50.86281242798037,0.0,1.0
1624262554.21875,0,0,-0.35940115576152293,0.0,1.0
1624262554.6875,0,0,12.109447746717693,0.0,1.0
1624262555.15625,0,0,9.234247699692313,0.0,1.0
1624262555.625,0,0,-44.796693813738734,0.0,1.0
1624262556.09375,0,0,59.97980031650537,0.0,1.0
1624262556.5625,0,0,-16.327394255036776,0.0,1.0
1624262557.03125,0,0,-39.400799322282865,0.0,1.0
1624262557.5,0,0,228.58629305350397,0.0,1.0
1624262557.96875,0,0,-30.000489393343866,0.0,1.0
1624262558.4375,0,0,25.76785523831569,0.0,1.0
1624262558.90625,0,0,-20.72851497816872,0.0,1.0
1624262559.375,0,0,234.15427810602986,0.0,1.0
1624262559.84375,0,0,-3.6833027127000353,0.0,1.0
1624262560.3125,0,0,20.334196428123516,0.0,1.0
1624262560.78125,0,0,0.0,0.0,1.0
1624262561.25,0,0,242.77586469272356,0.0,1.0
1624262561.71875,0,0,0.0,0.0,1.0
1624262562.1875,0,0,18.951634468464185,0.0,1.0
1624262562.65625,0,0,-11.532293589255138,0.0,1.0
1624262563.125,0,0,235.55549435239817,0.0,1.0
1624262563.59375,0,0,-3.960712277068552,0.0,1.0
1624262564.0625,0,0,23.17889028489306,0.0,1.0
1624262564.53125,0,0,0.0,0.0,1.0
1624262565.0,0,0,239.99884333613502,0.0,1.0
1624262565.46875,0,0,0.0,0.0,1.0
1624262565.9375,0,0,20.298324131158765,0.0,1.0
1624262566.40625,0,0,-10.095664202907294,0.0,1.0
1624262566.875,0,0,228.46466667421484,0.0,1.0
1624262567.34375,0,0,-1.6294902926596733,0.0,1.0
1624262567.8125,0,0,31.149768804539804,0.0,1.0
1624262568.28125,0,0,0.0,0.0,1.0
1624262568.75,0,0,11.410779601624931,0.0,1.0
1624262569.21875,0,0,13.259258156474626,0.0,1.0
1624262569.6875,0,0,23.459589195844984,0.0,1.0
1624262570.15625,0,0,0.0,0.0,1.0
1624262570.625,0,0,0.0,0.0,1.0
1624262571.09375,0,0,21.36874432910938,0.0,1.0
1624262571.5625,0,0,25.429915785506086,0.0,1.0
1624262572.03125,0,0,36.99934112054531,0.0,1.0
1624262572.5,0,0,0.0,0.0,1.0
1624262572.96875,0,0,56.48290155991694,0.0,1.0
1624262573.4375,0,0,36.73004285237898,0.0,1.0
1624262573.90625,0,0,13.933356878127867,0.0,1.0
1624262574.375,0,0,31.363745137946164,0.0,1.0
1624262574.84375,0,0,56.86490508425404,0.0,1.0
1624262575.3125,0,0,0.0,0.0,1.0
1624262575.78125,0,0,14.13430847818216,0.0,1.0
1624262576.25,0,0,0.0,0.0,1.0
1624262576.71875,0,0,19.616670362821285,0.0,1.0
1624262577.1875,0,0,15.965658563268557,0.0,1.0
1624262577.65625,0,0,12.873100540403378,0.0,1.0
1624262578.125,0,0,17.603579266261477,0.0,1.0
1624262578.59375,0,0,0.0,0.0,1.0
1624262579.0625,0,0,15.737134029409535,0.0,1.0
1624262579.53125,0,0,14.790296609073415,0.0,1.0
1624262580.0,0,0,0.0,0.0,1.0
1624262580.46875,0,0,0.0,0.0,1.0
1624262580.9375,0,0,41.58664364417674,0.0,1.0
1624262581.40625,0,0,29.97736766157767,0.0,1.0
1624262581.875,0,0,32.03592102149607,0.0,1.0
1624262582.34375,0,0,0.0,0.0,1.0
1624262582.8125,0,0,25.251765295540423,0.0,1.0
1624262583.28125,0,0,22.33593834803452,0.0,1.0
1624262583.75,0,0,7.4005812980928045,0.0,1.0
1624262584.21875,0,0,96.25385305423814,0.0,1.0
1624262584.6875,0,0,0.0,0.0,1.0
1624262585.15625,0,0,52.33049046999485,0.0,1.0
1624262585.625,0,0,97.89043135017968,0.0,1.0
1624262586.09375,0,0,8.143738346782971,0.0,1.0
1624262586.5625,0,0,21.80917895916865,0.0,1.0
1624262587.03125,0,0,4.3120787682584165,0.0,1.0
1624262587.5,0,0,98.01558271123048,0.0,1.0
1624262587.96875,0,0,41.82218243687525,0.0,1.0
1624262588.4375,0,0,0.0,0.0,1.0
1624262588.90625,0,0,22.011767707292503,0.0,1.0
1624262589.375,0,0,90.27416415878122,0.0,1.0
1624262589.84375,0,0,28.34081468370203,0.0,1.0
1624262590.3125,0,0,11.215858837328069,0.0,1.0
1624262590.78125,0,0,2.892157497627815,0.0,1.0
1624262591.25,0,0,134.3076970502838,0.0,1.0
1624262591.71875,0,0,-36.94555538996039,0.0,1.0
1624262592.1875,0,0,60.54574939633489,0.0,1.0
1624262592.65625,0,0,0.0,0.0,1.0
1624262593.125,0,0,224.62389996505945,0.0,1.0
1624262593.59375,0,0,0.0,0.0,1.0
1624262594.0625,0,0,56.917111589339115,0.0,1.0
1624262594.53125,0,0,5.870134102369074,0.0,1.0
1624262595.0,0,0,53.59970909886428,0.0,1.0
1624262595.46875,0,0,23.940768568857777,0.0,1.0
1624262595.9375,0,0,23.756693112364196,0.0,1.0
1624262596.40625,0,0,0.0,0.0,1.0
1624262596.875,0,0,71.8304658449537,0.0,1.0
1624262597.34375,0,0,18.845435252509503,0.0,1.0
1624262597.8125,0,0,45.13097022914032,0.0,1.0
1624262598.28125,0,0,-26.765507789583513,0.0,1.0
1624262598.75,0,0,155.99388071737263,0.0,1.0
1624262599.21875,0,0,0.0,0.0,1.0
1624262599.6875,0,0,18.36616966252637,0.0,1.0
1624262600.15625,0,0,9.703476628299544,0.0,1.0
1624262600.625,0,0,97.87193256875892,0.0,1.0
1624262601.09375,0,0,14.054185971294363,0.0,1.0
1624262601.5625,0,0,25.184727225661995,0.0,1.0
1624262602.03125,0,0,0.0,0.0,1.0
1624262602.5,0,0,116.21052444282553,0.0,1.0
1624262602.96875,0,0,24.41601185660707,0.0,1.0
1624262603.4375,0,0,13.26732405210682,0.0,1.0
1624262603.90625,0,0,22.306265755368727,0.0,1.0
1624262604.375,0,0,47.130978931776866,0.0,1.0
1624262604.84375,0,0,34.96633945904952,0.0,1.0
1624262605.3125,0,0,25.45103077396448,0.0,1.0
1624262605.78125,0,0,0.0,0.0,1.0
1624262606.25,0,0,132.1129878525407,0.0,1.0
1624262606.71875,0,0,20.402728236035014,0.0,1.0
1624262607.1875,0,0,-0.6034719082373977,0.0,1.0
1624262607.65625,0,0,0.0,0.0,1.0
1624262608.125,0,0,198.25697481515033,0.0,1.0
1624262608.59375,0,0,0.0,0.0,1.0
1624262609.0625,0,0,60.901732655520284,0.0,1.0
1624262609.53125,0,0,25.145443710866825,0.0,1.0
1624262610.0,0,0,75.45454831208356,0.0,1.0
1624262610.46875,0,0,13.890233210560542,0.0,1.0
1624262610.9375,0,0,25.308934019159302,0.0,1.0
1624262611.40625,0,0,0.0,0.0,1.0
1624262611.875,0,0,177.32383232090163,0.0,1.0
1624262612.34375,0,0,0.0,0.0,1.0
1624262612.8125,0,0,48.826532318127526,0.0,1.0
1624262613.28125,0,0,26.6643708099187,0.0,1.0
1624262613.75,0,0,94.20538833797934,0.0,1.0
1624262614.21875,0,0,1.9431947949324422,0.0,1.0
1624262614.6875,0,0,16.269689086146396,0.0,1.0
1624262615.15625,0,0,13.817188067499222,0.0,1.0
1624262615.625,0,0,147.22880387240238,0.0,1.0
1624262616.09375,0,0,0.0,0.0,1.0
1624262616.5625,0,0,52.46710122866944,0.0,1.0
1624262617.03125,0,0,0.0,0.0,1.0
1624262617.5,0,0,116.25609108450834,0.0,1.0
1624262617.96875,0,0,0.0,0.0,1.0
1624262618.4375,0,0,39.24946589157459,0.0,1.0
1624262618.90625,0,0,27.21330596298499,0.0,1.0
1624262619.375,0,0,0.0,0.0,1.0
1624262619.84375,0,0,-5.603295235202916,0.0,1.0
1624262620.3125,0,0,32.8184613075531,0.0,1.0
1624262620.78125,0,0,0.0,0.0,1.0
1624262621.25,0,0,21.10645911325878,0.0,1.0
1624262621.71875,0,0,44.410330700953935,0.0,1.0
1624262622.1875,0,0,10.892779196200484,0.0,1.0
1624262622.65625,0,0,25.18545365822247,0.0,1.0
1624262623.125,0,0,0.0,0.0,1.0
1624262623.59375,0,0,101.93910208758207,0.0,1.0
1624262624.0625,0,0,25.92759027037637,0.0,1.0
1624262624.53125,0,0,0.0,0.0,1.0
1624262625.0,0,0,22.205791666127546,0.0,1.0
1624262625.46875,0,0,0.0,0.0,1.0
1624262625.9375,0,0,15.977103141814135,0.0,1.0
1624262626.40625,0,0,34.218609616852355,0.0,1.0
1624262626.875,0,0,0.0,0.0,1.0
1624262627.34375,0,0,14.239572433320305,0.0,1.0
1624262627.8125,0,0,0.0,0.0,1.0
1624262628.28125,0,0,55.0884830979837,0.0,1.0
1624262628.75,0,0,17.40662499248239,0.0,1.0
1624262629.21875,0,0,0.0,0.0,1.0
1624262629.6875,0,0,27.760765367957955,0.0,1.0
1624262630.15625,0,0,22.561024794139218,0.0,1.0
1624262630.625,0,0,14.846736722686202,0.0,1.0
1624262631.09375,0,0,0.0,0.0,1.0
1624262631.5625,0,0,19.974016408922424,0.0,1.0
1624262632.03125,0,0,22.809732167616705,0.0,1.0
1624262632.5,0,0,0.0,0.0,1.0
1624262632.96875,0,0,23.343703454520597,0.0,1.0
1624262633.4375,0,0,0.0,0.0,1.0
1624262633.90625,0,0,0.0,0.0,1.0
1624262634.375,0,0,24.838086397258433,0.0,1.0
1624262634.84375,0,0,0.0,0.0,1.0
1624262635.3125,0,0,31.353276631435776,0.0,1.0
1624262635.78125,0,0,-8.736283217808284,0.0,1.0
1624262636.25,0,0,51.060362821451534,0.0,1.0
1624262636.71875,0,0,136.85676283343744,0.0,1.0
1624262637.1875,0,0,0.0,0.0,1.0
1624262637.65625,0,0,94.993118776807,0.0,1.0
1624262638.125,0,0,26.5355364538114,0.0,1.0
1624262638.59375,0,0,0.0,0.0,1.0
1624262639.0625,0,0,29.151351593964023,0.0,1.0
1624262639.53125,0,0,0.0,0.0,1.0
1624262640.0,0,0,24.21189972976978,0.0,1.0
1624262640.46875,0,0,42.1332244663396,0.0,1.0
1624262640.9375,0,0,-8.124717605894288,0.0,1.0
1624262641.40625,0,0,25.04852308382962,0.0,1.0
1624262641.875,0,0,0.0,0.0,1.0
1624262642.34375,0,0,41.677678131862706,0.0,1.0
1624262642.8125,0,0,0.0,0.0,1.0
1624262643.28125,0,0,23.800034151283818,0.0,1.0
1624262643.75,0,0,0.0,0.0,1.0
1624262644.21875,0,0,13.143877687729367,0.0,1.0
1624262644.6875,0,0,19.600109071835487,0.0,1.0
1624262645.15625,0,0,0.0,0.0,1.0
1624262645.625,0,0,50.76753780261973,0.0,1.0
1624262646.09375,0,0,50.063938573289185,0.0,1.0
1624262646.5625,0,0,-9.634515540711087,0.0,1.0
1624262647.03125,0,0,29.160041398575434,0.0,1.0
1624262647.5,0,0,97.62737572124271,0.0,1.0
1624262647.96875,0,0,38.56023405627346,0.0,1.0
1624262648.4375,0,0,15.469247213556876,0.0,1.0
1624262648.90625,0,0,0.0,0.0,1.0
1624262649.375,0,0,98.52553308910369,0.0,1.0
1624262649.84375,0,0,-17.506321074372146,0.0,1.0
1624262650.3125,0,0,15.778314161199704,0.0,1.0
1624262650.78125,0,0,10.678887499925775,0.0,1.0
1624262651.25,0,0,66.67231761032211,0.0,1.0
1624262651.71875,0,0,15.38920442364333,0.0,1.0
1624262652.1875,0,0,0.0,0.0,1.0
1624262652.65625,0,0,23.97550428677856,0.0,1.0
1624262653.125,0,0,90.14760879478186,0.0,1.0
1624262653.59375,0,0,21.109323410074122,0.0,1.0
1624262654.0625,0,0,12.466953584013847,0.0,1.0
1624262654.53125,0,0,0.0,0.0,1.0
1624262655.0,0,0,160.8852076537253,0.0,1.0
1624262655.46875,0,0,0.0,0.0,1.0
1624262655.9375,0,0,57.63061431692979,0.0,1.0
1624262656.40625,0,0,29.334411273509,0.0,1.0
1624262656.875,0,0,87.2315716524322,0.0,1.0
1624262657.34375,0,0,23.07308578150142,0.0,1.0
1624262657.8125,0,0,17.695899442891093,0.0,1.0
1624262658.28125,0,0,0.0,0.0,1.0
1624262658.75,0,0,0.0,0.0,1.0
1624262659.21875,0,0,0.0,0.0,1.0
1624262659.6875,0,0,47.01728484598048,0.0,1.0
1624262660.15625,0,0,27.79267139579652,0.0,1.0
1624262660.625,0,0,0.0,0.0,1.0
1624262661.09375,0,0,40.69814522768794,0.0,1.0
1624262661.5625,0,0,8.339709856319612,0.0,1.0
1624262662.03125,0,0,0.0,0.0,1.0
1624262662.5,0,0,0.0,0.0,1.0
1624262662.96875,0,0,157.10442886549433,0.0,1.0
1624262663.4375,0,0,53.998506433013794,0.0,1.0
1624262663.90625,0,0,29.070284026823934,0.0,1.0
1624262664.375,0,0,0.0,0.0,1.0
1624262664.84375,0,0,95.2211081458085,0.0,1.0
1624262665.3125,0,0,18.33584347895349,0.0,1.0
1624262665.78125,0,0,0.0,0.0,1.0
1624262666.25,0,0,17.69128501129723,0.0,1.0
1624262666.71875,0,0,80.14791469338968,0.0,1.0
1624262667.1875,0,0,8.468903935951316,0.0,1.0
1624262667.65625,0,0,19.080123220324673,0.0,1.0
1624262668.125,0,0,0.0,0.0,1.0
1624262668.59375,0,0,24.44575514853172,0.0,1.0
1624262669.0625,0,0,17.49239568101681,0.0,1.0
1624262669.53125,0,0,0.0,0.0,1.0
1624262670.0,0,0,132.03279361612408,0.0,1.0
1624262670.46875,0,0,-6.344215927040254,0.0,1.0
1624262670.9375,0,0,9.43368063113031,0.0,1.0
1624262671.40625,0,0,0.0,0.0,1.0
1624262671.875,0,0,11.568539829065678,0.0,1.0
1624262672.34375,0,0,161.03754296616333,0.0,1.0
1624262672.8125,0,0,24.353895040436534,0.0,1.0
1624262673.28125,0,0,42.8419787855843,0.0,1.0
1624262673.75,0,0,0.0,0.0,1.0
1624262674.21875,0,0,108.03354738510204,0.0,1.0
1624262674.6875,0,0,17.964413192896874,0.0,1.0
1624262675.15625,0,0,0.0,0.0,1.0
1624262675.625,0,0,51.77767386855382,0.0,1.0
1624262676.09375,0,0,143.43791109862377,0.0,1.0
1624262676.5625,0,0,37.85895755115317,0.0,1.0
1624262677.03125,0,0,39.889511347471526,0.0,1.0
1624262677.5,0,0,0.0,0.0,1.0
1624262677.96875,0,0,111.12852643006163,0.0,1.0
1624262678.4375,0,0,28.822265452244007,0.0,1.0
1624262678.90625,0,0,0.0,0.0,1.0
1624262679.375,0,0,27.521482542643525,0.0,1.0
1624262679.84375,0,0,90.8888945656828,0.0,1.0
1624262680.3125,0,0,16.317565871708133,0.0,1.0
1624262680.78125,0,0,26.832404613306814,0.0,1.0
1624262681.25,0,0,0.0,0.0,1.0
1624262681.71875,0,0,20.486532762359694,0.0,1.0
1624262682.1875,0,0,13.228020845259659,0.0,1.0
1624262682.65625,0,0,9.154176279789143,0.0,1.0
1624262683.125,0,0,29.535401529043288,0.0,1.0
1624262683.59375,0,0,29.599277576720866,0.0,1.0
1624262684.0625,0,0,0.0,0.0,1.0
1624262684.53125,0,0,0.0,0.0,1.0
1624262685.0,0,0,0.0,0.0,1.0
1624262685.46875,0,0,116.37431332548589,0.0,1.0
1624262685.9375,0,0,0.0,0.0,1.0
1624262686.40625,0,0,101.33290061083683,0.0,1.0
1624262686.875,0,0,10.149311166983786,0.0,1.0
1624262687.34375,0,0,0.0,0.0,1.0
1624262687.8125,0,0,16.375217295981955,0.0,1.0
1624262688.28125,0,0,22.540018991328886,0.0,1.0
1624262688.75,0,0,0.0,0.0,1.0
1624262689.21875,0,0,21.57827122003842,0.0,1.0
1624262689.6875,0,0,0.0,0.0,1.0
1624262690.15625,0,0,23.24331667747014,0.0,1.0
1624262690.625,0,0,13.490168424483437,0.0,1.0
1624262691.09375,0,0,3.463987057530827,0.0,1.0
1624262691.5625,0,0,20.124322335458313,0.0,1.0
1624262692.03125,0,0,27.278824414258096,0.0,1.0
1624262692.5,0,0,6.115878337949376,0.0,1.0
1624262692.96875,0,0,5.5360465654396895,0.0,1.0
1624262693.4375,0,0,101.03665079759632,0.0,1.0
1624262693.90625,0,0,52.02839479081124,0.0,1.0
1624262694.375,0,0,51.97267432744332,0.0,1.0
1624262694.84375,0,0,23.047684221862962,0.0,1.0
1624262695.3125,0,0,43.05664942830068,0.0,1.0
1624262695.78125,0,0,0.0,0.0,1.0
1624262696.25,0,0,10.133197711536637,0.0,1.0
1624262696.71875,0,0,98.96459721872824,0.0,1.0
1624262697.1875,0,0,-12.646222421554134,0.0,1.0
1624262697.65625,0,0,0.0,0.0,1.0
1624262698.125,0,0,51.78188308110953,0.0,1.0
1624262698.59375,0,0,22.450900969791217,0.0,1.0
1624262699.0625,0,0,24.76807195621483,0.0,1.0
1624262699.53125,0,0,0.0,0.0,1.0
1624262700.0,0,0,76.69170768359666,0.0,1.0
1624262700.46875,0,0,39.95537662254293,0.0,1.0
1624262700.9375,0,0,22.54656741712957,0.0,1.0
1624262701.40625,0,0,0.0,0.0,1.0
1624262701.875,0,0,78.43722259794707,0.0,1.0
1624262702.34375,0,0,11.019901637434382,0.0,1.0
1624262702.8125,0,0,6.9886225111692895,0.0,1.0
1624262703.28125,0,0,24.134817736166063,0.0,1.0
1624262703.75,0,0,95.6903892212507,0.0,1.0
1624262704.21875,0,0,24.161123884026782,0.0,1.0
1624262704.6875,0,0,12.621552073478528,0.0,1.0
1624262705.15625,0,0,16.1185738308337,0.0,1.0
1624262705.625,0,0,46.224015445370256,0.0,1.0
1624262706.09375,0,0,47.61720302195171,0.0,1.0
1624262706.5625,0,0,9.099990201536205,0.0,1.0
1624262707.03125,0,0,0.0,0.0,1.0
1624262707.5,0,0,259.1020733314137,0.0,1.0
1624262707.96875,0,0,0.0,0.0,1.0
1624262708.4375,0,0,67.25163134901563,0.0,1.0
1624262708.90625,0,0,19.198472675504796,0.0,1.0
1624262709.375,0,0,4.58783685421668,0.0,1.0
1624262709.84375,0,0,44.624931246327606,0.0,1.0
1624262710.3125,0,0,27.632113905437446,0.0,1.0
1624262710.78125,0,0,0.0,0.0,1.0
1624262711.25,0,0,57.65921410773762,0.0,1.0
1624262711.71875,0,0,6.442380301985644,0.0,1.0
1624262712.1875,0,0,6.069021993008039,0.0,1.0
1624262712.65625,0,0,22.61882675903737,0.0,1.0
1624262713.125,0,0,-1.3762681459996775,0.0,1.0
1624262713.59375,0,0,38.86686608856285,0.0,1.0
1624262714.0625,0,0,17.252600566086446,0.0,1.0
1624262714.53125,0,0,15.488756793403736,0.0,1.0
1624262715.0,0,0,68.50426527295815,0.0,1.0
1624262715.46875,0,0,10.446310712287895,0.0,1.0
1624262715.9375,0,0,0.0,0.0,1.0
1624262716.40625,0,0,27.401278313409833,0.0,1.0
1624262716.875,0,0,68.78850643460085,0.0,1.0
1624262717.34375,0,0,23.6713215416964,0.0,1.0
1624262717.8125,0,0,21.65427936779898,0.0,1.0
1624262718.28125,0,0,14.436484168218676,0.0,1.0
1624262718.75,0,0,48.27311659553072,0.0,1.0
1624262719.21875,0,0,41.41718642240882,0.0,1.0
1624262719.6875,0,0,24.296895431988276,0.0,1.0
1624262720.15625,0,0,-37.39574348846045,0.0,1.0
1624262720.625,0,0,116.31391554663853,0.0,1.0
1624262721.09375,0,0,2.2497289871704,0.0,1.0
1624262721.5625,0,0,0.0,0.0,1.0
1624262722.03125,0,0,59.207718581379794,0.0,1.0
1624262722.5,0,0,222.41066988077478,0.0,1.0
1624262722.96875,0,0,20.3154938104299,0.0,1.0
1624262723.4375,0,0,34.08499951258306,0.0,1.0
1624262723.90625,0,0,0.0,0.0,1.0
1624262724.375,0,0,187.18561835653708,0.0,1.0
1624262724.84375,0,0,52.61313758489771,0.0,1.0
1624262725.3125,0,0,27.49009805971859,0.0,1.0
1624262725.78125,0,0,43.53651881845402,0.0,1.0
1624262726.25,0,0,0.0,0.0,1.0
1624262726.71875,0,0,18.30911014958141,0.0,1.0
1624262727.1875,0,0,0.0,0.0,1.0
1624262727.65625,0,0,0.0,0.0,1.0
1624262728.125,0,0,149.32229934293431,0.0,1.0
1624262728.59375,0,0,54.69798236802959,0.0,1.0
1624262729.0625,0,0,27.60843173523246,0.0,1.0
1624262729.53125,0,0,0.0,0.0,1.0
1624262730.0,0,0,211.34696009821585,0.0,1.0
1624262730.46875,0,0,69.76552254168651,0.0,1.0
1624262730.9375,0,0,26.451790703135618,0.0,1.0
1624262731.40625,0,0,0.0,0.0,1.0
1624262731.875,0,0,33.109295844255435,0.0,1.0
1624262732.34375,0,0,33.32390508631794,0.0,1.0
1624262732.8125,0,0,0.0,0.0,1.0
1624262733.28125,0,0,8.313774479528968,0.0,1.0
1624262733.75,0,0,58.05587467324979,0.0,1.0
1624262734.21875,0,0,-3.0422969471383676,0.0,1.0
1624262734.6875,0,0,24.056366193948698,0.0,1.0
1624262735.15625,0,0,0.0,0.0,1.0
1624262735.625,0,0,92.0944725016824,0.0,1.0
1624262736.09375,0,0,0.0,0.0,1.0
1624262736.5625,0,0,0.0,0.0,1.0
1624262737.03125,0,0,29.54935500163117,0.0,1.0
1624262737.5,0,0,22.26573758219631,0.0,1.0
1624262737.96875,0,0,0.0,0.0,1.0
1624262738.4375,0,0,15.55075479405176,0.0,1.0
1624262738.90625,0,0,0.0,0.0,1.0
1624262739.375,0,0,0.0,0.0,1.0
1624262739.84375,0,0,21.04723056139299,0.0,1.0
1624262740.3125,0,0,0.0,0.0,1.0
1624262740.78125,0,0,20.0738931014824,0.0,1.0
1624262741.25,0,0,18.502496963846667,0.0,1.0
1624262741.71875,0,0,0.0,0.0,1.0
1624262742.1875,0,0,23.790081801834642,0.0,1.0
1624262742.65625,0,0,0.0,0.0,1.0
1624262743.125,0,0,22.186519094337235,0.0,1.0
1624262743.59375,0,0,19.554450183540368,0.0,1.0
1624262744.0625,0,0,0.0,0.0,1.0
1624262744.53125,0,0,19.592059983704015,0.0,1.0
1624262745.0,0,0,0.0,0.0,1.0
1624262745.46875,0,0,20.62426162037145,0.0,1.0
1624262745.9375,0,0,21.49984686168549,0.0,1.0
1624262746.40625,0,0,0.0,0.0,1.0
1624262746.875,0,0,20.550160884140958,0.0,1.0
1624262747.34375,0,0,24.832239063323865,0.0,1.0
1624262747.8125,0,0,0.0,0.0,1.0
1624262748.28125,0,0,25.032442774000472,0.0,1.0
1624262748.75,0,0,0.0,0.0,1.0
1624262749.21875,0,0,24.21921053081981,0.0,1.0
1624262749.6875,0,0,22.725851775579606,0.0,1.0
1624262750.15625,0,0,0.0,0.0,1.0
1624262750.625,0,0,18.333265572891474,0.0,1.0
1624262751.09375,0,0,20.043526774285848,0.0,1.0
1624262751.5625,0,0,15.225703624593093,0.0,1.0
1624262752.03125,0,0,-8.1597087443028,0.0,1.0
1624262752.5,0,0,49.122702657226206,0.0,1.0
1624262752.96875,0,0,67.70607328159889,0.0,1.0
1624262753.4375,0,0,53.77901328772384,0.0,1.0
1624262753.90625,0,0,-2.12470057143486,0.0,1.0
1624262754.375,0,0,89.90115160674614,0.0,1.0
1624262754.84375,0,0,32.31543222039751,0.0,1.0
1624262755.3125,0,0,1.849176727830257,0.0,1.0
1624262755.78125,0,0,-0.6767840313263955,0.0,1.0
1624262756.25,0,0,91.59898750978024,0.0,1.0
1624262756.71875,0,0,11.282720816815782,0.0,1.0
1624262757.1875,0,0,29.43403040766613,0.0,1.0
1624262757.65625,0,0,0.0,0.0,1.0
1624262758.125,0,0,211.2907764034432,0.0,1.0
1624262758.59375,0,0,0.0,0.0,1.0
1624262759.0625,0,0,-22.30888474987757,0.0,1.0
1624262759.53125,0,0,69.35913154148977,0.0,1.0
1624262760.0,0,0,183.6359025554634,0.0,1.0
1624262760.46875,0,0,40.29934790716962,0.0,1.0
1624262760.9375,0,0,0.0,0.0,1.0
1624262761.40625,0,0,38.289488758257384,0.0,1.0
1624262761.875,0,0,156.18635949586582,0.0,1.0
1624262762.34375,0,0,47.43118097932528,0.0,1.0
1624262762.8125,0,0,46.20169516091274,0.0,1.0
1624262763.28125,0,0,-6.914254915529066,0.0,1.0
1624262763.75,0,0,68.44982962162173,0.0,1.0
1624262764.21875,0,0,-7.8263448312965265,0.0,1.0
1624262764.6875,0,0,25.445334864526526,0.0,1.0
1624262765.15625,0,0,0.0,0.0,1.0
1624262765.625,0,0,66.65676345520382,0.0,1.0
1624262766.09375,0,0,0.0,0.0,1.0
1624262766.5625,0,0,16.0474109743218,0.0,1.0
1624262767.03125,0,0,-8.397444881739712,0.0,1.0
1624262767.5,0,0,82.33523702673571,0.0,1.0
1624262767.96875,0,0,-22.267646355105917,0.0,1.0
1624262768.4375,0,0,22.441559935588376,0.0,1.0
1624262768.90625,0,0,0.0,0.0,1.0
1624262769.375,0,0,100.58330324477275,0.0,1.0
1624262769.84375,0,0,-9.367113557146107,0.0,1.0
1624262770.3125,0,0,-5.574988181647063,0.0,1.0
1624262770.78125,0,0,0.0,0.0,1.0
1624262771.25,0,0,53.809006640839044,0.0,1.0
1624262771.71875,0,0,42.427329350431734,0.0,1.0
1624262772.1875,0,0,29.807185908576177,0.0,1.0
1624262772.65625,0,0,67.72068708173153,0.0,1.0
1624262773.125,0,0,72.93163226382224,0.0,1.0
1624262773.59375,0,0,0.0,0.0,1.0
1624262774.0625,0,0,0.0,0.0,1.0
1624262774.53125,0,0,56.113708599137226,0.0,1.0
1624262775.0,0,0,17.017589239284327,0.0,1.0
1624262775.46875,0,0,-1.131467316953821,0.0,1.0
1624262775.9375,0,0,21.299744332324583,0.0,1.0
1624262776.40625,0,0,80.08289958925272,0.0,1.0
1624262776.875,0,0,36.00220663561782,0.0,1.0
1624262777.34375,0,0,12.87087974888568,0.0,1.0
1624262777.8125,0,0,0.0,0.0,1.0
1624262778.28125,0,0,56.021143772275025,0.0,1.0
1624262778.75,0,0,20.00910682643078,0.0,1.0
1624262779.21875,0,0,0.0,0.0,1.0
1624262779.6875,0,0,23.661473357636922,0.0,1.0
1624262780.15625,0,0,93.3225733899271,0.0,1.0
1624262780.625,0,0,26.066465801038465,0.0,1.0
1624262781.09375,0,0,7.6242283965364335,0.0,1.0
1624262781.5625,0,0,0.0,0.0,1.0
1624262782.03125,0,0,69.41120834741031,0.0,1.0
1624262782.5,0,0,70.01204253099478,0.0,1.0
1624262782.96875,0,0,0.0,0.0,1.0
1624262783.4375,0,0,9.928232072052788,0.0,1.0
1624262783.90625,0,0,209.27157568803634,0.0,1.0
1624262784.375,0,0,-2.0760470910877777,0.0,1.0
1624262784.84375,0,0,56.43410419104878,0.0,1.0
1624262785.3125,0,0,0.0,0.0,1.0
1624262785.78125,0,0,96.50126810530531,0.0,1.0
1624262786.25,0,0,0.0,0.0,1.0
1624262786.71875,0,0,4.247944689139388,0.0,1.0
1624262787.1875,0,0,26.942410015200082,0.0,1.0
1624262787.65625,0,0,90.61993628346319,0.0,1.0
1624262788.125,0,0,26.672787034474656,0.0,1.0
1624262788.59375,0,0,13.04005212954664,0.0,1.0
1624262789.0625,0,0,14.706117765573639,0.0,1.0
1624262789.53125,0,0,46.80408423441709,0.0,1.0
1624262790.0,0,0,40.64606652301929,0.0,1.0
1624262790.46875,0,0,-0.461897300311549,0.0,1.0
1624262790.9375,0,0,0.0,0.0,1.0
1624262791.40625,0,0,85.68291560115262,0.0,1.0
1624262791.875,0,0,210.98059378742255,0.0,1.0
1624262792.34375,0,0,0.0,0.0,1.0
1624262792.8125,0,0,102.92447508450738,0.0,1.0
1624262793.28125,0,0,0.0,0.0,1.0
1624262793.75,0,0,2.8244992455781315,0.0,1.0
1624262794.21875,0,0,0.0,0.0,1.0
1624262794.6875,0,0,24.555439573194555,0.0,1.0
1624262795.15625,0,0,17.10710036970541,0.0,1.0
1624262795.625,0,0,-2.162363189772477,0.0,1.0
1624262796.09375,0,0,0.0,0.0,1.0
1624262796.5625,0,0,217.6096479708908,0.0,1.0
1624262797.03125,0,0,108.36421468306042,0.0,1.0
1624262797.5,0,0,0.0,0.0,1.0
1624262797.96875,0,0,0.7721061962298957,0.0,1.0
1624262798.4375,0,0,15.163096744883077,0.0,1.0
1624262798.90625,0,0,12.294074158114643,0.0,1.0
1624262799.375,0,0,18.850987535484016,0.0,1.0
1624262799.84375,0,0,0.0,0.0,1.0
1624262800.3125,0,0,17.09038336355376,0.0,1.0
1624262800.78125,0,0,13.57060868027443,0.0,1.0
1624262801.25,0,0,9.545579590704596,0.0,1.0
1624262801.71875,0,0,15.155376090051975,0.0,1.0
1624262802.1875,0,0,0.0,0.0,1.0
1624262802.65625,0,0,0.0,0.0,1.0
1624262803.125,0,0,17.582272082986613,0.0,1.0
1624262803.59375,0,0,0.0,0.0,1.0
1624262804.0625,0,0,18.208929334311552,0.0,1.0
1624262804.53125,0,0,21.472674521667173,0.0,1.0
1624262805.0,0,0,12.786515618977074,0.0,1.0
1624262805.46875,0,0,9.390103214553571,0.0,1.0
1624262805.9375,0,0,22.023903781139484,0.0,1.0
1624262806.40625,0,0,0.0,0.0,1.0
1624262806.875,0,0,25.593280627120947,0.0,1.0
1624262807.34375,0,0,9.506611905470077,0.0,1.0
1624262807.8125,0,0,-1.027699467158266,0.0,1.0
1624262808.28125,0,0,68.36489663742142,0.0,1.0
1624262808.75,0,0,0.0,0.0,1.0
1624262809.21875,0,0,8.103737617074396,0.0,1.0
1624262809.6875,0,0,21.13615746011843,0.0,1.0
1624262810.15625,0,0,75.06583869826376,0.0,1.0
1624262810.625,0,0,5.180979059940217,0.0,1.0
1624262811.09375,0,0,0.0,0.0,1.0
1624262811.5625,0,0,14.66205166885479,0.0,1.0
1624262812.03125,0,0,88.93355216469747,0.0,1.0
1624262812.5,0,0,19.24363562107325,0.0,1.0
1624262812.96875,0,0,2.51398240987706,0.0,1.0
1624262813.4375,0,0,0.0,0.0,1.0
1624262813.90625,0,0,184.43947435029847,0.0,1.0
1624262814.375,0,0,55.930759424221755,0.0,1.0
1624262814.84375,0,0,0.0,0.0,1.0
1624262815.3125,0,0,0.0,0.0,1.0
1624262815.78125,0,0,37.51171488467719,0.0,1.0
1624262816.25,0,0,0.0,0.0,1.0
1624262816.71875,0,0,0.0,0.0,1.0
1624262817.1875,0,0,14.474635030195394,0.0,1.0
1624262817.65625,0,0,51.46590196457122,0.0,1.0
1624262818.125,0,0,-7.772685655568197,0.0,1.0
1624262818.59375,0,0,18.409634783215946,0.0,1.0
1624262819.0625,0,0,0.0,0.0,1.0
1624262819.53125,0,0,68.61929509111316,0.0,1.0
1624262820.0,0,0,6.709477698316104,0.0,1.0
1624262820.46875,0,0,7.400743803448818,0.0,1.0
1624262820.9375,0,0,35.305001415047784,0.0,1.0
1624262821.40625,0,0,20.791479840671467,0.0,1.0
1624262821.875,0,0,-0.46981446606318716,0.0,1.0
1624262822.34375,0,0,12.638833327941747,0.0,1.0
1624262822.8125,0,0,71.1316364838804,0.0,1.0
1624262823.28125,0,0,13.717436268506919,0.0,1.0
1624262823.75,0,0,15.753554863965633,0.0,1.0
1624262824.21875,0,0,0.0,0.0,1.0
1624262824.6875,0,0,68.35208313699977,0.0,1.0
1624262825.15625,0,0,9.640303866657185,0.0,1.0
1624262825.625,0,0,-3.9957223178878425,0.0,1.0
1624262826.09375,0,0,6.794397804758869,0.0,1.0
1624262826.5625,0,0,0.0,0.0,1.0
1624262827.03125,0,0,201.27940025738462,0.0,1.0
1624262827.5,0,0,48.02717674997149,0.0,1.0
1624262827.96875,0,0,52.21396978299191,0.0,1.0
1624262828.4375,0,0,30.05670139110588,0.0,1.0
1624262828.90625,0,0,5.364941182460983,0.0,1.0
1624262829.375,0,0,20.92766955845685,0.0,1.0
1624262829.84375,0,0,0.0,0.0,1.0
1624262830.3125,0,0,38.29106709382515,0.0,1.0
1624262830.78125,0,0,31.73158288479864,0.0,1.0
1624262831.25,0,0,12.342732056113615,0.0,1.0
1624262831.71875,0,0,0.0,0.0,1.0
1624262832.1875,0,0,241.28946666742837,0.0,1.0
1624262832.65625,0,0,0.0,0.0,1.0
1624262833.125,0,0,41.88977792226759,0.0,1.0
1624262833.59375,0,0,19.695217602191597,0.0,1.0
1624262834.0625,0,0,121.39149122295001,0.0,1.0
1624262834.53125,0,0,0.0,0.0,1.0
1624262835.0,0,0,45.4199578849503,0.0,1.0
1624262835.46875,0,0,0.0,0.0,1.0
1624262835.9375,0,0,59.07472569594314,0.0,1.0
1624262836.40625,0,0,-21.404222264601636,0.0,1.0
1624262836.875,0,0,0.0,0.0,1.0
1624262837.34375,0,0,0.0,0.0,1.0
1624262837.8125,0,0,186.604264138181,0.0,1.0
1624262838.28125,0,0,0.0,0.0,1.0
1624262838.75,0,0,60.92280596288567,0.0,1.0
1624262839.21875,0,0,0.0,0.0,1.0
1624262839.6875,0,0,51.819236618678445,0.0,1.0
1624262840.15625,0,0,-0.2767691015971329,0.0,1.0
1624262840.625,0,0,24.289748697534193,0.0,1.0
1624262841.09375,0,0,20.08946813035775,0.0,1.0
1624262841.5625,0,0,44.59242901974927,0.0,1.0
1624262842.03125,0,0,35.88356029531992,0.0,1.0
1624262842.5,0,0,0.0,0.0,1.0
1624262842.96875,0,0,37.984545853829154,0.0,1.0
1624262843.4375,0,0,65.40969420156924,0.0,1.0
1624262843.90625,0,0,24.57912975078434,0.0,1.0
1624262844.375,0,0,33.803698374989374,0.0,1.0
1624262844.84375,0,0,0.0,0.0,1.0
1624262845.3125,0,0,73.78719861309047,0.0,1.0
1624262845.78125,0,0,10.071278958578837,0.0,1.0
1624262846.25,0,0,21.690342921598553,0.0,1.0
1624262846.71875,0,0,18.14312961416173,0.0,1.0
1624262847.1875,0,0,48.96343926654312,0.0,1.0
1624262847.65625,0,0,39.76047861381422,0.0,1.0
1624262848.125,0,0,0.0,0.0,1.0
1624262848.59375,0,0,32.17430212568142,0.0,1.0
1624262849.0625,0,0,18.43612379828745,0.0,1.0
1624262849.53125,0,0,12.022834525832508,0.0,1.0
1624262850.0,0,0,24.55901509425559,0.0,1.0
1624262850.46875,0,0,0.0,0.0,1.0
1624262850.9375,0,0,25.581013166015335,0.0,1.0
1624262851.40625,0,0,27.908890778776243,0.0,1.0
1624262851.875,0,0,0.0,0.0,1.0
1624262852.34375,0,0,24.940967127407525,0.0,1.0
1624262852.8125,0,0,0.0,0.0,1.0
1624262853.28125,0,0,21.39653647887497,0.0,1.0
1624262853.75,0,0,22.081751392730464,0.0,1.0
1624262854.21875,0,0,0.0,0.0,1.0
1624262854.6875,0,0,21.508169721763753,0.0,1.0
1624262855.15625,0,0,0.0,0.0,1.0
1624262855.625,0,0,14.37323326901586,0.0,1.0
1624262856.09375,0,0,23.110621155373078,0.0,1.0
1624262856.5625,0,0,0.0,0.0,1.0
1624262857.03125,0,0,20.508205149184516,0.0,1.0
1624262857.5,0,0,0.0,0.0,1.0
1624262857.96875,0,0,12.370919775142525,0.0,1.0
1624262858.4375,0,0,30.653425206198698,0.0,1.0
1624262858.90625,0,0,0.0,0.0,1.0
1624262859.375,0,0,0.0,0.0,1.0
1624262859.84375,0,0,28.59227497305641,0.0,1.0
1624262860.3125,0,0,25.349977898705866,0.0,1.0
1624262860.78125,0,0,0.0,0.0,1.0
1624262861.25,0,0,3.6060730575708155,0.0,1.0
1624262861.71875,0,0,75.16412619617246,0.0,1.0
1624262862.1875,0,0,0.0,0.0,1.0
1624262862.65625,0,0,0.0,0.0,1.0
1624262863.125,0,0,131.8303265839442,0.0,1.0
1624262863.59375,0,0,0.0,0.0,1.0
1624262864.0625,0,0,28.146204607645345,0.0,1.0
1624262864.53125,0,0,89.7521316418797,0.0,1.0
1624262865.0,0,0,0.0,0.0,1.0
1624262865.46875,0,0,61.51306094787334,0.0,1.0
1624262865.9375,0,0,111.1096159231077,0.0,1.0
1624262866.40625,0,0,-20.498401158910355,0.0,1.0
1624262866.875,0,0,28.318629022328032,0.0,1.0
1624262867.34375,0,0,0.0,0.0,1.0
1624262867.8125,0,0,86.4258632854067,0.0,1.0
1624262868.28125,0,0,1.0377403177549813,0.0,1.0
1624262868.75,0,0,0.0,0.0,1.0
1624262869.21875,0,0,0.0,0.0,1.0
1624262869.6875,0,0,173.16292201156398,0.0,1.0
1624262870.15625,0,0,21.249421865653034,0.0,1.0
1624262870.625,0,0,51.39584184152524,0.0,1.0
1624262871.09375,0,0,39.98125441976672,0.0,1.0
1624262871.5625,0,0,110.35722244439998,0.0,1.0
1624262872.03125,0,0,25.912218367873095,0.0,1.0
1624262872.5,0,0,39.550490526280726,0.0,1.0
1624262872.96875,0,0,0.0,0.0,1.0
1624262873.4375,0,0,43.576901908136705,0.0,1.0
1624262873.90625,0,0,23.040351651466676,0.0,1.0
1624262874.375,0,0,0.0,0.0,1.0
1624262874.84375,0,0,19.876176911109,0.0,1.0
1624262875.3125,0,0,39.201048133383566,0.0,1.0
1624262875.78125,0,0,2.166593054277559,0.0,1.0
1624262876.25,0,0,19.83498833745205,0.0,1.0
1624262876.71875,0,0,0.0,0.0,1.0
1624262877.1875,0,0,63.716332723385854,0.0,1.0
1624262877.65625,0,0,12.757353243741912,0.0,1.0
1624262878.125,0,0,8.236277860934127,0.0,1.0
1624262878.59375,0,0,19.883963745967954,0.0,1.0
1624262879.0625,0,0,60.85700473166733,0.0,1.0
1624262879.53125,0,0,-4.807407896845513,0.0,1.0
1624262880.0,0,0,0.325215883329425,0.0,1.0
1624262880.46875,0,0,0.0,0.0,1.0
1624262880.9375,0,0,224.88157488345496,0.0,1.0
1624262881.40625,0,0,90.6050821665016,0.0,1.0
1624262881.875,0,0,0.0,0.0,1.0
1624262882.34375,0,0,15.21791011654702,0.0,1.0
1624262882.8125,0,0,45.92241062534628,0.0,1.0
1624262883.28125,0,0,-1.1835760138559823,0.0,1.0
1624262883.75,0,0,21.788870803358417,0.0,1.0
1624262884.21875,0,0,0.0,0.0,1.0
1624262884.6875,0,0,59.38196560253757,0.0,1.0
1624262885.15625,0,0,10.309955157458162,0.0,1.0
1624262885.625,0,0,0.0,0.0,1.0
1624262886.09375,0,0,0.0,0.0,1.0
1624262886.5625,0,0,191.11625702905275,0.0,1.0
1624262887.03125,0,0,50.25686045053749,0.0,1.0
1624262887.5,0,0,63.983038464584624,0.0,1.0
1624262887.96875,0,0,-6.393966425510169,0.0,1.0
1624262888.4375,0,0,49.50658530909185,0.0,1.0
1624262888.90625,0,0,10.592363412677678,0.0,1.0
1624262889.375,0,0,0.0,0.0,1.0
1624262889.84375,0,0,27.626323700456535,0.0,1.0
1624262890.3125,0,0,37.89562546631275,0.0,1.0
1624262890.78125,0,0,0.0,0.0,1.0
1624262891.25,0,0,19.514300170912783,0.0,1.0
1624262891.71875,0,0,16.253406041417186,0.0,1.0
1624262892.1875,0,0,60.79874396019178,0.0,1.0
1624262892.65625,0,0,7.9062623494352495,0.0,1.0
1624262893.125,0,0,0.0,0.0,1.0
1624262893.59375,0,0,0.0,0.0,1.0
1624262894.0625,0,0,260.8109232869155,0.0,1.0
1624262894.53125,0,0,0.0,0.0,1.0
1624262895.0,0,0,89.81477931734788,0.0,1.0
1624262895.46875,0,0,0.0,0.0,1.0
1624262895.9375,0,0,31.190465668023357,0.0,1.0
1624262896.40625,0,0,23.025392011122012,0.0,1.0
1624262896.875,0,0,0.0,0.0,1.0
1624262897.34375,0,0,5.171672815141802,0.0,1.0
1624262897.8125,0,0,252.72733954732783,0.0,1.0
1624262898.28125,0,0,0.0,0.0,1.0
1624262898.75,0,0,88.55278628843101,0.0,1.0
1624262899.21875,0,0,24.900171284948172,0.0,1.0
1624262899.6875,0,0,0.0,0.0,1.0
1624262900.15625,0,0,32.54118974432731,0.0,1.0
1624262900.625,0,0,26.8184306069571,0.0,1.0
1624262901.09375,0,0,0.0,0.0,1.0
1624262901.5625,0,0,61.77016301186488,0.0,1.0
1624262902.03125,0,0,0.0,0.0,1.0
1624262902.5,0,0,0.0,0.0,1.0
1624262902.96875,0,0,22.706025491124535,0.0,1.0
1624262903.4375,0,0,11.337159826218235,0.0,1.0
1624262903.90625,0,0,24.813815747576967,0.0,1.0
1624262904.375,0,0,21.93750215090182,0.0,1.0
1624262904.84375,0,0,0.0,0.0,1.0
1624262905.3125,0,0,28.081636459092312,0.0,1.0
1624262905.78125,0,0,14.955611234080772,0.0,1.0
1624262906.25,0,0,0.0,0.0,1.0
1624262906.71875,0,0,22.385148106277242,0.0,1.0
1624262907.1875,0,0,24.54349206128248,0.0,1.0
1624262907.65625,0,0,0.0,0.0,1.0
1624262908.125,0,0,22.395977171391753,0.0,1.0
1624262908.59375,0,0,24.49988836828875,0.0,1.0
1624262909.0625,0,0,0.0,0.0,1.0
1624262909.53125,0,0,11.090937862026232,0.0,1.0
1624262910.0,0,0,19.194932579703405,0.0,1.0
1624262910.46875,0,0,0.0,0.0,1.0
1624262910.9375,0,0,20.686654772020223,0.0,1.0
1624262911.40625,0,0,32.45419164403383,0.0,1.0
1624262911.875,0,0,0.0,0.0,1.0
1624262912.34375,0,0,33.05223586431611,0.0,1.0
1624262912.8125,0,0,0.0,0.0,1.0
1624262913.28125,0,0,0.0,0.0,1.0
1624262913.75,0,0,16.837793156383732,0.0,1.0
1624262914.21875,0,0,0.0,0.0,1.0
1624262914.6875,0,0,17.538190717570366,0.0,1.0
1624262915.15625,0,0,14.906251870051605,0.0,1.0
1624262915.625,0,0,17.136368796518102,0.0,1.0
1624262916.09375,0,0,0.0,0.0,1.0
1624262916.5625,0,0,15.337629465537564,0.0,1.0
1624262917.03125,0,0,18.112261648834576,0.0,1.0
1624262917.5,0,0,0.0,0.0,1.0
1624262917.96875,0,0,19.281776615449374,0.0,1.0
1624262918.4375,0,0,20.467330169524296,0.0,1.0
1624262918.90625,0,0,0.0,0.0,1.0
1624262919.375,0,0,24.56832246914187,0.0,1.0
1624262919.84375,0,0,25.01651114239902,0.0,1.0
1624262920.3125,0,0,0.0,0.0,1.0
1624262920.78125,0,0,26.151088656324024,0.0,1.0
1624262921.25,0,0,26.00787026364729,0.0,1.0
1624262921.71875,0,0,0.0,0.0,1.0
1624262922.1875,0,0,24.44348051771574,0.0,1.0
1624262922.65625,0,0,26.424974596049402,0.0,1.0
1624262923.125,0,0,0.0,0.0,1.0
1624262923.59375,0,0,24.679002869560303,0.0,1.0
1624262924.0625,0,0,25.762958856440882,0.0,1.0
1624262924.53125,0,0,0.0,0.0,1.0
1624262925.0,0,0,27.665455693850813,0.0,1.0
1624262925.46875,0,0,22.203552085538288,0.0,1.0
1624262925.9375,0,0,0.0,0.0,1.0
1624262926.40625,0,0,26.219730324838675,0.0,1.0
1624262926.875,0,0,19.40755671387486,0.0,1.0
1624262927.34375,0,0,28.406474216043662,0.0,1.0
1624262927.8125,0,0,0.0,0.0,1.0
1624262928.28125,0,0,25.373544276325443,0.0,1.0
1624262928.75,0,0,0.0,0.0,1.0
1624262929.21875,0,0,20.767699287262147,0.0,1.0
1624262929.6875,0,0,27.021597088743963,0.0,1.0
1624262930.15625,0,0,0.0,0.0,1.0
1624262930.625,0,0,23.412095441410095,0.0,1.0
1624262931.09375,0,0,0.0,0.0,1.0
1624262931.5625,0,0,84.62140084959299,0.0,1.0
1624262932.03125,0,0,-14.675842440181174,0.0,1.0
1624262932.5,0,0,0.0,0.0,1.0
1624262932.96875,0,0,59.099919895378946,0.0,1.0
1624262933.4375,0,0,25.312125462222916,0.0,1.0
1624262933.90625,0,0,0.0,0.0,1.0
1624262934.375,0,0,34.97013601868479,0.0,1.0
1624262934.84375,0,0,24.71128051664025,0.0,1.0
1624262935.3125,0,0,0.0,0.0,1.0
1624262935.78125,0,0,56.11002714250699,0.0,1.0
1624262936.25,0,0,0.0,0.0,1.0
1624262936.71875,0,0,21.75847899278977,0.0,1.0
1624262937.1875,0,0,0.0,0.0,1.0
1624262937.65625,0,0,32.35298533613531,0.0,1.0
1624262938.125,0,0,9.289312451793803,0.0,1.0
1624262938.59375,0,0,0.0,0.0,1.0
1624262939.0625,0,0,68.70083291920484,0.0,1.0
1624262939.53125,0,0,-3.445192399626249,0.0,1.0
1624262940.0,0,0,11.430378266514383,0.0,1.0
1624262940.46875,0,0,14.81246645826104,0.0,1.0
1624262940.9375,0,0,37.51576863123287,0.0,1.0
1624262941.40625,0,0,11.085753156196342,0.0,1.0
1624262941.875,0,0,3.643993087349429,0.0,1.0
1624262942.34375,0,0,24.214073662744116,0.0,1.0
1624262942.8125,0,0,36.75228239601444,0.0,1.0
1624262943.28125,0,0,26.417411560183986,0.0,1.0
1624262943.75,0,0,24.918010177612103,0.0,1.0
1624262944.21875,0,0,0.0,0.0,1.0
1624262944.6875,0,0,56.67261897661834,0.0,1.0
1624262945.15625,0,0,0.0,0.0,1.0
1624262945.625,0,0,3.6919290301776413,0.0,1.0
1624262946.09375,0,0,26.161211686624466,0.0,1.0
1624262946.5625,0,0,47.70635175798015,0.0,1.0
1624262947.03125,0,0,45.827434614387414,0.0,1.0
1624262947.5,0,0,12.546252408680502,0.0,1.0
1624262947.96875,0,0,23.673586536513966,0.0,1.0
1624262948.4375,0,0,27.266323660667656,0.0,1.0
1624262948.90625,0,0,33.366607769594566,0.0,1.0
1624262949.375,0,0,0.0,0.0,1.0
1624262949.84375,0,0,0.0,0.0,1.0
1624262950.3125,0,0,247.10100534161683,0.0,1.0
1624262950.78125,0,0,0.0,0.0,1.0
1624262951.25,0,0,81.1144439950299,0.0,1.0
1624262951.71875,0,0,17.95244320400072,0.0,1.0
1624262952.1875,0,0,0.0,0.0,1.0
1624262952.65625,0,0,11.530152025533438,0.0,1.0
1624262953.125,0,0,0.0,0.0,1.0
1624262953.59375,0,0,17.920541234346373,0.0,1.0
1624262954.0625,0,0,7.691286453891105,0.0,1.0
1624262954.53125,0,0,0.0,0.0,1.0
1624262955.0,0,0,-0.9930249101642638,0.0,1.0
1624262955.46875,0,0,0.0,0.0,1.0
1624262955.9375,0,0,220.23213519177892,0.0,1.0
1624262956.40625,0,0,55.524448805265685,0.0,1.0
1624262956.875,0,0,14.783547078125066,0.0,1.0
1624262957.34375,0,0,0.0,0.0,1.0
1624262957.8125,0,0,288.05735212638893,0.0,1.0
1624262958.28125,0,0,0.0,0.0,1.0
1624262958.75,0,0,88.74241164480128,0.0,1.0
1624262959.21875,0,0,27.311982583673455,0.0,1.0
1624262959.6875,0,0,0.0,0.0,1.0
1624262960.15625,0,0,31.082642435526555,0.0,1.0
1624262960.625,0,0,3.7929468710366216,0.0,1.0
1624262961.09375,0,0,-1.7608354978170517,0.0,1.0
1624262961.5625,0,0,229.7729547968241,0.0,1.0
1624262962.03125,0,0,0.0,0.0,1.0
1624262962.5,0,0,83.82596751693634,0.0,1.0
1624262962.96875,0,0,27.775148775856596,0.0,1.0
1624262963.4375,0,0,21.631235012708235,0.0,1.0
1624262963.90625,0,0,29.121642488835157,0.0,1.0
1624262964.375,0,0,0.4324564957890706,0.0,1.0
1624262964.84375,0,0,0.0,0.0,1.0
1624262965.3125,0,0,263.8876555069681,0.0,1.0
1624262965.78125,0,0,0.0,0.0,1.0
1624262966.25,0,0,89.58621248170435,0.0,1.0
1624262966.71875,0,0,24.75800833635369,0.0,1.0
1624262967.1875,0,0,26.084449217378783,0.0,1.0
1624262967.65625,0,0,0.5016550215719475,0.0,1.0
1624262968.125,0,0,35.54421987981277,0.0,1.0
1624262968.59375,0,0,0.0,0.0,1.0
1624262969.0625,0,0,42.82143905515853,0.0,1.0
1624262969.53125,0,0,42.41655400335517,0.0,1.0
1624262970.0,0,0,0.0,0.0,1.0
1624262970.46875,0,0,31.757546296288815,0.0,1.0
1624262970.9375,0,0,9.593461127356003,0.0,1.0
1624262971.40625,0,0,55.66586956366377,0.0,1.0
1624262971.875,0,0,8.88771013943263,0.0,1.0
1624262972.34375,0,0,0.0,0.0,1.0
1624262972.8125,0,0,34.587547521535235,0.0,1.0
1624262973.28125,0,0,36.587958246252754,0.0,1.0
1624262973.75,0,0,5.244532402861241,0.0,1.0
1624262974.21875,0,0,22.771479637317363,0.0,1.0
1624262974.6875,0,0,11.064684956870968,0.0,1.0
1624262975.15625,0,0,49.27018367294578,0.0,1.0
1624262975.625,0,0,13.093098368278348,0.0,1.0
1624262976.09375,0,0,0.0,0.0,1.0
1624262976.5625,0,0,25.103395537117883,0.0,1.0
1624262977.03125,0,0,13.433821616260992,0.0,1.0
1624262977.5,0,0,-0.5656294062526669,0.0,1.0
1624262977.96875,0,0,28.993592589357487,0.0,1.0
1624262978.4375,0,0,21.36997349641069,0.0,1.0
1624262978.90625,0,0,0.0,0.0,1.0
1624262979.375,0,0,23.629640510243714,0.0,1.0
1624262979.84375,0,0,17.916711331929964,0.0,1.0
1624262980.3125,0,0,0.0,0.0,1.0
1624262980.78125,0,0,26.665823422325154,0.0,1.0
1624262981.25,0,0,0.0,0.0,1.0
1624262981.71875,0,0,0.0,0.0,1.0
1624262982.1875,0,0,0.0,0.0,1.0
1624262982.65625,0,0,68.71580325878995,0.0,1.0
1624262983.125,0,0,-12.128500102599807,0.0,1.0
1624262983.59375,0,0,11.156751413199547,0.0,1.0
1624262984.0625,0,0,22.859697354526638,0.0,1.0
1624262984.53125,0,0,47.111172454061354,0.0,1.0
1624262985.0,0,0,21.659250639014473,0.0,1.0
1624262985.46875,0,0,0.0,0.0,1.0
1624262985.9375,0,0,46.43716722155167,0.0,1.0
1624262986.40625,0,0,26.636071725656723,0.0,1.0
1624262986.875,0,0,0.0,0.0,1.0
1624262987.34375,0,0,103.05206020522706,0.0,1.0
1624262987.8125,0,0,0.9451866450614,0.0,1.0
1624262988.28125,0,0,29.800436040985616,0.0,1.0
1624262988.75,0,0,0.0,0.0,1.0
1624262989.21875,0,0,21.27937565067496,0.0,1.0
1624262989.6875,0,0,24.485969652670512,0.0,1.0
1624262990.15625,0,0,0.0,0.0,1.0
1624262990.625,0,0,17.61735715534645,0.0,1.0
1624262991.09375,0,0,21.600107831946396,0.0,1.0
1624262991.5625,0,0,0.0,0.0,1.0
1624262992.03125,0,0,48.16148531382443,0.0,1.0
1624262992.5,0,0,41.785351479617354,0.0,1.0
1624262992.96875,0,0,0.0,0.0,1.0
1624262993.4375,0,0,0.0,0.0,1.0
1624262993.90625,0,0,217.8686028731742,0.0,1.0
1624262994.375,0,0,81.16316818996368,0.0,1.0
1624262994.84375,0,0,0.0,0.0,1.0
1624262995.3125,0,0,17.206737135882396,0.0,1.0
1624262995.78125,0,0,23.59633417662834,0.0,1.0
1624262996.25,0,0,0.0,0.0,1.0
1624262996.71875,0,0,23.981026103635134,0.0,1.0
1624262997.1875,0,0,0.0,0.0,1.0
1624262997.65625,0,0,73.65052138835742,0.0,1.0
1624262998.125,0,0,5.567416801670358,0.0,1.0
1624262998.59375,0,0,0.0,0.0,1.0
1624262999.0625,0,0,0.0,0.0,1.0
1624262999.53125,0,0,220.1920379832927,0.0,1.0
1624263000.0,0,0,64.55383465352224,0.0,1.0
1624263000.46875,0,0,35.98369233212851,0.0,1.0
1624263000.9375,0,0,0.0,0.0,1.0
1624263001.40625,0,0,21.27307725759799,0.0,1.0
1624263001.875,0,0,0.0,0.0,1.0
1624263002.34375,0,0,25.336791880155964,0.0,1.0
1624263002.8125,0,0,0.0,0.0,1.0
1624263003.28125,0,0,69.2738302226278,0.0,1.0
1624263003.75,0,0,7.176900089262554,0.0,1.0
1624263004.21875,0,0,0.0,0.0,1.0
1624263004.6875,0,0,0.0,0.0,1.0
1624263005.15625,0,0,225.60232914126468,0.0,1.0
1624263005.625,0,0,44.05529380305386,0.0,1.0
1624263006.09375,0,0,22.77593496065062,0.0,1.0
1624263006.5625,0,0,0.0,0.0,1.0
1624263007.03125,0,0,0.0,0.0,1.0
1624263007.5,0,0,94.26982876540005,0.0,1.0
1624263007.96875,0,0,54.46377628857325,0.0,1.0
1624263008.4375,0,0,0.0,0.0,1.0
1624263008.90625,0,0,193.92137341110362,0.0,1.0
1624263009.375,0,0,69.01818744656364,0.0,1.0
1624263009.84375,0,0,0.0,0.0,1.0
1624263010.3125,0,0,0.0,0.0,1.0
1624263010.78125,0,0,182.6868145832923,0.0,1.0
1624263011.25,0,0,13.326566789442909,0.0,1.0
1624263011.71875,0,0,70.6533972468736,0.0,1.0
1624263012.1875,0,0,0.0,0.0,1.0
1624263012.65625,0,0,51.613994953652636,0.0,1.0
1624263013.125,0,0,21.115730133021874,0.0,1.0
1624263013.59375,0,0,0.0,0.0,1.0
1624263014.0625,0,0,24.169845162199998,0.0,1.0
1624263014.53125,0,0,39.17500277457651,0.0,1.0
1624263015.0,0,0,14.627896861973339,0.0,1.0
1624263015.46875,0,0,19.664577980420052,0.0,1.0
1624263015.9375,0,0,16.434704364737758,0.0,1.0
1624263016.40625,0,0,31.447216960745365,0.0,1.0
1624263016.875,0,0,-5.427225421051189,0.0,1.0
1624263017.34375,0,0,23.962804363271395,0.0,1.0
1624263017.8125,0,0,63.67529847624752,0.0,1.0
1624263018.28125,0,0,4.687164541225089,0.0,1.0
1624263018.75,0,0,22.288420660648338,0.0,1.0
1624263019.21875,0,0,21.93001763495634,0.0,1.0
1624263019.6875,0,0,-1.323359949448415,0.0,1.0
1624263020.15625,0,0,24.23731338196124,0.0,1.0
1624263020.625,0,0,-2.6994918607852307,0.0,1.0
1624263021.09375,0,0,28.253467788861414,0.0,1.0
1624263021.5625,0,0,0.0,0.0,1.0
1624263022.03125,0,0,50.21941046550244,0.0,1.0
1624263022.5,0,0,21.05282561970596,0.0,1.0
1624263022.96875,0,0,0.0,0.0,1.0
1624263023.4375,0,0,41.11293354452775,0.0,1.0
1624263023.90625,0,0,10.576087662130934,0.0,1.0
1624263024.375,0,0,11.967955240360714,0.0,1.0
1624263024.84375,0,0,22.0482693395129,0.0,1.0
1624263025.3125,0,0,12.699165702281817,0.0,1.0
1624263025.78125,0,0,29.415028658267172,0.0,1.0
1624263026.25,0,0,21.351844111195366,0.0,1.0
1624263026.71875,0,0,0.0,0.0,1.0
1624263027.1875,0,0,52.78323442750468,0.0,1.0
1624263027.65625,0,0,0.0,0.0,1.0
1624263028.125,0,0,2.484276936334015,0.0,1.0
1624263028.59375,0,0,0.0,0.0,1.0
1624263029.0625,0,0,243.75671428035406,0.0,1.0
1624263029.53125,0,0,58.37452435445317,0.0,1.0
1624263030.0,0,0,0.0,0.0,1.0
1624263030.46875,0,0,0.0,0.0,1.0
1624263030.9375,0,0,18.2578355211148,0.0,1.0
1624263031.40625,0,0,0.0,0.0,1.0
1624263031.875,0,0,37.90384672440859,0.0,1.0
1624263032.34375,0,0,27.674793926962852,0.0,1.0
1624263032.8125,0,0,0.0,0.0,1.0
1624263033.28125,0,0,18.72473610363107,0.0,1.0
1624263033.75,0,0,9.525328801845351,0.0,1.0
1624263034.21875,0,0,8.50157351340662,0.0,1.0
1624263034.6875,0,0,51.609286266085014,0.0,1.0
1624263035.15625,0,0,-64.41497620984325,0.0,1.0
1624263035.625,0,0,128.8841088835132,0.0,1.0
1624263036.09375,0,0,71.41691215533844,0.0,1.0
1624263036.5625,0,0,8.745700609094955,0.0,1.0
1624263037.03125,0,0,152.66698574082014,0.0,1.0
1624263037.5,0,0,-20.782933102898532,0.0,1.0
1624263037.96875,0,0,32.29175106036616,0.0,1.0
1624263038.4375,0,0,60.450527075679446,0.0,1.0
1624263038.90625,0,0,52.61807213135483,0.0,1.0
1624263039.375,0,0,-37.275917306696044,0.0,1.0
1624263039.84375,0,0,71.84961417869201,0.0,1.0
1624263040.3125,0,0,43.513178287400876,0.0,1.0
1624263040.78125,0,0,0.0,0.0,1.0
1624263041.25,0,0,92.25711815376233,0.0,1.0
1624263041.71875,0,0,56.96922110434558,0.0,1.0
1624263042.1875,0,0,0.0,0.0,1.0
1624263042.65625,0,0,87.08413227726614,0.0,1.0
1624263043.125,0,0,20.895723356377868,0.0,1.0
1624263043.59375,0,0,13.787187404518193,0.0,1.0
1624263044.0625,0,0,0.0,0.0,1.0
1624263044.53125,0,0,0.0,0.0,1.0
1624263045.0,0,0,45.55394678774394,0.0,1.0
1624263045.46875,0,0,55.184693860485474,0.0,1.0
1624263045.9375,0,0,20.945637421127312,0.0,1.0
1624263046.40625,0,0,23.71522527939247,0.0,1.0
1624263046.875,0,0,0.0,0.0,1.0
1624263047.34375,0,0,17.30660352537084,0.0,1.0
1624263047.8125,0,0,-5.680093607703682,0.0,1.0
1624263048.28125,0,0,80.98325488391117,0.0,1.0
1624263048.75,0,0,0.0,0.0,1.0
1624263049.21875,0,0,-3.6469967130109384,0.0,1.0
1624263049.6875,0,0,98.6790959528985,0.0,1.0
1624263050.15625,0,0,-5.240915620573601,0.0,1.0
1624263050.625,0,0,2.024068160355821,0.0,1.0
1624263051.09375,0,0,15.107433752447196,0.0,1.0
1624263051.5625,0,0,89.64540507992061,0.0,1.0
1624263052.03125,0,0,26.751793591574014,0.0,1.0
1624263052.5,0,0,-0.8279302960261729,0.0,1.0
1624263052.96875,0,0,0.0,0.0,1.0
1624263053.4375,0,0,170.528845483958,0.0,1.0
1624263053.90625,0,0,48.96744349363945,0.0,1.0
1624263054.375,0,0,35.22355339013952,0.0,1.0
1624263054.84375,0,0,0.0,0.0,1.0
1624263055.3125,0,0,45.005137760540116,0.0,1.0
1624263055.78125,0,0,0.0,0.0,1.0
1624263056.25,0,0,24.371432104353733,0.0,1.0
1624263056.71875,0,0,15.796666326395998,0.0,1.0
1624263057.1875,0,0,48.309571022052715,0.0,1.0
1624263057.65625,0,0,3.488880538858209,0.0,1.0
1624263058.125,0,0,0.0,0.0,1.0
1624263058.59375,0,0,34.034004396864134,0.0,1.0
1624263059.0625,0,0,174.3763377841407,0.0,1.0
1624263059.53125,0,0,11.816191327301825,0.0,1.0
1624263060.0,0,0,49.92526457993859,0.0,1.0
1624263060.46875,0,0,0.0,0.0,1.0
1624263060.9375,0,0,161.71619519973453,0.0,1.0
1624263061.40625,0,0,29.973447278765136,0.0,1.0
1624263061.875,0,0,0.0,0.0,1.0
1624263062.34375,0,0,23.17997443894333,0.0,1.0
1624263062.8125,0,0,31.909117642097936,0.0,1.0
1624263063.28125,0,0,-8.498663701436298,0.0,1.0
1624263063.75,0,0,25.49183229945079,0.0,1.0
1624263064.21875,0,0,0.0,0.0,1.0
1624263064.6875,0,0,36.33075932626711,0.0,1.0
1624263065.15625,0,0,0.0,0.0,1.0
1624263065.625,0,0,10.140196388049588,0.0,1.0
1624263066.09375,0,0,0.0,0.0,1.0
1624263066.5625,0,0,176.8377078916843,0.0,1.0
1624263067.03125,0,0,46.589590542688214,0.0,1.0
1624263067.5,0,0,0.0,0.0,1.0
1624263067.96875,0,0,0.0,0.0,1.0
1624263068.4375,0,0,3.76669595895044,0.0,1.0
1624263068.90625,0,0,0.0,0.0,1.0
1624263069.375,0,0,30.90794031740463,0.0,1.0
1624263069.84375,0,0,18.544266604899562,0.0,1.0
1624263070.3125,0,0,23.921385328400493,0.0,1.0
1624263070.78125,0,0,10.666836099463866,0.0,1.0
1624263071.25,0,0,23.45611564920618,0.0,1.0
1624263071.71875,0,0,-16.528410811587477,0.0,1.0
1624263072.1875,0,0,44.65559700245954,0.0,1.0
1624263072.65625,0,0,0.0,0.0,1.0
1624263073.125,0,0,17.51326538902509,0.0,1.0
1624263073.59375,0,0,24.609059632130496,0.0,1.0
1624263074.0625,0,0,25.318994374351263,0.0,1.0
1624263074.53125,0,0,10.147187145377403,0.0,1.0
1624263075.0,0,0,15.583264836158985,0.0,1.0
1624263075.46875,0,0,0.0,0.0,1.0
1624263075.9375,0,0,64.53509454422158,0.0,1.0
1624263076.40625,0,0,-16.843063097647523,0.0,1.0
1624263076.875,0,0,0.0,0.0,1.0
1624263077.34375,0,0,26.230148218658226,0.0,1.0
1624263077.8125,0,0,7.201444469464385,0.0,1.0
1624263078.28125,0,0,4.907692504297588,0.0,1.0
1624263078.75,0,0,15.579929971723926,0.0,1.0
1624263079.21875,0,0,10.04316051554477,0.0,1.0
1624263079.6875,0,0,22.142994797285287,0.0,1.0
1624263080.15625,0,0,20.111835604656285,0.0,1.0
1624263080.625,0,0,0.0,0.0,1.0
1624263081.09375,0,0,22.566015732964846,0.0,1.0
1624263081.5625,0,0,33.133412307552504,0.0,1.0
1624263082.03125,0,0,11.511356224527857,0.0,1.0
1624263082.5,0,0,22.011913362066668,0.0,1.0
1624263082.96875,0,0,10.138564303423582,0.0,1.0
1624263083.4375,0,0,38.62619592505637,0.0,1.0
1624263083.90625,0,0,9.14421333506752,0.0,1.0
1624263084.375,0,0,0.0,0.0,1.0
1624263084.84375,0,0,164.19394204041149,0.0,1.0
1624263085.3125,0,0,0.0,0.0,1.0
1624263085.78125,0,0,47.41173427919852,0.0,1.0
1624263086.25,0,0,31.2598660667844,0.0,1.0
1624263086.71875,0,0,25.653253496175523,0.0,1.0
1624263087.1875,0,0,17.161796136970146,0.0,1.0
1624263087.65625,0,0,23.044035722249262,0.0,1.0
1624263088.125,0,0,16.287097348804828,0.0,1.0
1624263088.59375,0,0,0.0,0.0,1.0
1624263089.0625,0,0,14.699835160400006,0.0,1.0
1624263089.53125,0,0,0.0,0.0,1.0
1624263090.0,0,0,14.426590891739238,0.0,1.0
1624263090.46875,0,0,11.726392815378635,0.0,1.0
1624263090.9375,0,0,10.969764034803537,0.0,1.0
1624263091.40625,0,0,25.53460669853118,0.0,1.0
1624263091.875,0,0,19.010874336831606,0.0,1.0
1624263092.34375,0,0,0.0,0.0,1.0
1624263092.8125,0,0,52.7608778366076,0.0,1.0
1624263093.28125,0,0,0.0,0.0,1.0
1624263093.75,0,0,91.56648701475078,0.0,1.0
1624263094.21875,0,0,0.0,0.0,1.0
1624263094.6875,0,0,-6.444370851998103,0.0,1.0
1624263095.15625,0,0,37.089945746156076,0.0,1.0
1624263095.625,0,0,25.579858301998115,0.0,1.0
1624263096.09375,0,0,0.0,0.0,1.0
1624263096.5625,0,0,0.0,0.0,1.0
1624263097.03125,0,0,24.876094277948695,0.0,1.0
1624263097.5,0,0,28.189546063518684,0.0,1.0
1624263097.96875,0,0,21.390809722321098,0.0,1.0
1624263098.4375,0,0,0.0,0.0,1.0
1624263098.90625,0,0,6.225074797922519,0.0,1.0
1624263099.375,0,0,123.9459024879768,0.0,1.0
1624263099.84375,0,0,0.0,0.0,1.0
1624263100.3125,0,0,83.02123846954221,0.0,1.0
1624263100.78125,0,0,27.549080568220095,0.0,1.0
1624263101.25,0,0,8.042950010930097,0.0,1.0
1624263101.71875,0,0,7.957361564381935,0.0,1.0
1624263102.1875,0,0,15.929710488541103,0.0,1.0
1624263102.65625,0,0,102.85965823694194,0.0,1.0
1624263103.125,0,0,0.0,0.0,1.0
1624263103.59375,0,0,75.14987881012924,0.0,1.0
1624263104.0625,0,0,24.710946661283128,0.0,1.0
1624263104.53125,0,0,0.0,0.0,1.0
1624263105.0,0,0,13.439396743285778,0.0,1.0
1624263105.46875,0,0,41.259536302987804,0.0,1.0
1624263105.9375,0,0,15.111250355183651,0.0,1.0
1624263106.40625,0,0,0.0,0.0,1.0
1624263106.875,0,0,22.51164366979341,0.0,1.0
1624263107.34375,0,0,1.9769791394609675,0.0,1.0
1624263107.8125,0,0,17.820041557433097,0.0,1.0
1624263108.28125,0,0,63.91423223582529,0.0,1.0
1624263108.75,0,0,0.0,0.0,1.0
1624263109.21875,0,0,30.68158527917243,0.0,1.0
1624263109.6875,0,0,5.634483249958412,0.0,1.0
1624263110.15625,0,0,4.462902784511027,0.0,1.0
1624263110.625,0,0,19.12506300062144,0.0,1.0
1624263111.09375,0,0,25.59681982150315,0.0,1.0
1624263111.5625,0,0,0.0,0.0,1.0
1624263112.03125,0,0,21.05028478738977,0.0,1.0
1624263112.5,0,0,0.0,0.0,1.0
1624263112.96875,0,0,46.79572285973571,0.0,1.0
1624263113.4375,0,0,-3.257896659157621,0.0,1.0
1624263113.90625,0,0,-4.502822567815932,0.0,1.0
1624263114.375,0,0,60.84355638997534,0.0,1.0
1624263114.84375,0,0,57.039123284513096,0.0,1.0
1624263115.3125,0,0,8.681387482551271,0.0,1.0
1624263115.78125,0,0,37.4849071862794,0.0,1.0
1624263116.25,0,0,0.0,0.0,1.0
1624263116.71875,0,0,71.53802200696072,0.0,1.0
1624263117.1875,0,0,34.66550555826487,0.0,1.0
1624263117.65625,0,0,0.0,0.0,1.0
1624263118.125,0,0,23.127005450626022,0.0,1.0
1624263118.59375,0,0,73.96929213424667,0.0,1.0
1624263119.0625,0,0,20.425273840270755,0.0,1.0
1624263119.53125,0,0,30.80666964746838,0.0,1.0
1624263120.0,0,0,0.0,0.0,1.0
1624263120.46875,0,0,60.2507063927957,0.0,1.0
1624263120.9375,0,0,23.503988320242282,0.0,1.0
1624263121.40625,0,0,0.0,0.0,1.0
1624263121.875,0,0,0.0,0.0,1.0
1624263122.34375,0,0,101.47934009686155,0.0,1.0
1624263122.8125,0,0,22.239784703182572,0.0,1.0
1624263123.28125,0,0,39.927447042017235,0.0,1.0
1624263123.75,0,0,0.0,0.0,1.0
1624263124.21875,0,0,40.262269102154676,0.0,1.0
1624263124.6875,0,0,22.97904055777756,0.0,1.0
1624263125.15625,0,0,0.0,0.0,1.0
1624263125.625,0,0,28.169467346225595,0.0,1.0
1624263126.09375,0,0,24.24267895336781,0.0,1.0
1624263126.5625,0,0,2.403245310138497,0.0,1.0
1624263127.03125,0,0,26.445136600650738,0.0,1.0
1624263127.5,0,0,0.0,0.0,1.0
1624263127.96875,0,0,52.82589707957624,0.0,1.0
1624263128.4375,0,0,19.502259816231362,0.0,1.0
1624263128.90625,0,0,0.0,0.0,1.0
1624263129.375,0,0,26.536465679671707,0.0,1.0
1624263129.84375,0,0,23.83941244948269,0.0,1.0
1624263130.3125,0,0,0.0,0.0,1.0
1624263130.78125,0,0,23.01189002631196,0.0,1.0
1624263131.25,0,0,0.0,0.0,1.0
1624263131.71875,0,0,49.7383702727612,0.0,1.0
1624263132.1875,0,0,10.399423510469546,0.0,1.0
1624263132.65625,0,0,0.0,0.0,1.0
1624263133.125,0,0,0.0,0.0,1.0
1624263133.59375,0,0,0.0,0.0,1.0
1624263134.0625,0,0,48.31829086867368,0.0,1.0
1624263134.53125,0,0,22.900157327512385,0.0,1.0
1624263135.0,0,0,17.567803707837452,0.0,1.0
1624263135.46875,0,0,-0.6329959559931041,0.0,1.0
1624263135.9375,0,0,23.722347457357426,0.0,1.0
1624263136.40625,0,0,0.0,0.0,1.0
1624263136.875,0,0,87.54650588643848,0.0,1.0
1624263137.34375,0,0,0.0,0.0,1.0
1624263137.8125,0,0,27.331909157167782,0.0,1.0
1624263138.28125,0,0,31.65444331599586,0.0,1.0
1624263138.75,0,0,62.56833480499565,0.0,1.0
1624263139.21875,0,0,-19.010662686400984,0.0,1.0
1624263139.6875,0,0,23.992859734190148,0.0,1.0
1624263140.15625,0,0,25.115386599370513,0.0,1.0
1624263140.625,0,0,26.353543825647236,0.0,1.0
1624263141.09375,0,0,15.521453660669515,0.0,1.0
1624263141.5625,0,0,0.0,0.0,1.0
1624263142.03125,0,0,24.281568024732803,0.0,1.0
1624263142.5,0,0,55.1522332734253,0.0,1.0
1624263142.96875,0,0,-13.0259929705769,0.0,1.0
1624263143.4375,0,0,27.4036617626191,0.0,1.0
1624263143.90625,0,0,0.0,0.0,1.0
1624263144.375,0,0,0.0,0.0,1.0
1624263144.84375,0,0,14.981594582637097,0.0,1.0
1624263145.3125,0,0,3.682300754485427,0.0,1.0
1624263145.78125,0,0,29.52017506658822,0.0,1.0
1624263146.25,0,0,27.672987556644724,0.0,1.0
1624263146.71875,0,0,0.0,0.0,1.0
1624263147.1875,0,0,18.0077954300033,0.0,1.0
1624263147.65625,0,0,18.78292850475413,0.0,1.0
1624263148.125,0,0,41.14331445418505,0.0,1.0
1624263148.59375,0,0,0.0,0.0,1.0
1624263149.0625,0,0,41.562711309108614,0.0,1.0
1624263149.53125,0,0,97.36286015784951,0.0,1.0
1624263150.0,0,0,-34.34508904760821,0.0,1.0
1624263150.46875,0,0,43.76181132501134,0.0,1.0
1624263150.9375,0,0,0.0,0.0,1.0
1624263151.40625,0,0,18.22385593908113,0.0,1.0
1624263151.875,0,0,22.642806850672404,0.0,1.0
1624263152.34375,0,0,0.0,0.0,1.0
1624263152.8125,0,0,23.590138419595977,0.0,1.0
1624263153.28125,0,0,21.82221214616434,0.0,1.0
1624263153.75,0,0,0.0,0.0,1.0
1624263154.21875,0,0,15.324753576197402,0.0,1.0
1624263154.6875,0,0,0.0,0.0,1.0
1624263155.15625,0,0,18.41511718062673,0.0,1.0
1624263155.625,0,0,23.406073955957382,0.0,1.0
1624263156.09375,0,0,0.0,0.0,1.0
1624263156.5625,0,0,23.748656650591926,0.0,1.0
1624263157.03125,0,0,24.009668455449706,0.0,1.0
1624263157.5,0,0,0.0,0.0,1.0
1624263157.96875,0,0,24.548354639176157,0.0,1.0
1624263158.4375,0,0,32.036369524494546,0.0,1.0
1624263158.90625,0,0,0.0,0.0,1.0
1624263159.375,0,0,18.639564332330156,0.0,1.0
1624263159.84375,0,0,26.42521575534199,0.0,1.0
1624263160.3125,0,0,22.253223251986434,0.0,1.0
1624263160.78125,0,0,-13.390199973270185,0.0,1.0
1624263161.25,0,0,76.63178268067853,0.0,1.0
1624263161.71875,0,0,-11.999420362186338,0.0,1.0
1624263162.1875,0,0,-11.281867549720776,0.0,1.0
1624263162.65625,0,0,32.230417618887905,0.0,1.0
1624263163.125,0,0,45.46946974913809,0.0,1.0
1624263163.59375,0,0,22.719507658114765,0.0,1.0
1624263164.0625,0,0,-9.160177416436465,0.0,1.0
1624263164.53125,0,0,52.2434568260759,0.0,1.0
1624263165.0,0,0,121.4068004411124,0.0,1.0
1624263165.46875,0,0,-22.47067991634204,0.0,1.0
1624263165.9375,0,0,35.14991796837541,0.0,1.0
1624263166.40625,0,0,0.0,0.0,1.0
1624263166.875,0,0,53.24132832446694,0.0,1.0
1624263167.34375,0,0,14.944528343243537,0.0,1.0
1624263167.8125,0,0,27.3762935486018,0.0,1.0
1624263168.28125,0,0,0.0,0.0,1.0
1624263168.75,0,0,40.927878300396955,0.0,1.0
1624263169.21875,0,0,11.185769465452553,0.0,1.0
1624263169.6875,0,0,0.0,0.0,1.0
1624263170.15625,0,0,0.0,0.0,1.0
1624263170.625,0,0,36.157159842673096,0.0,1.0
1624263171.09375,0,0,12.791833303676393,0.0,1.0
1624263171.5625,0,0,12.205723625697706,0.0,1.0
1624263172.03125,0,0,20.6233259111456,0.0,1.0
1624263172.5,0,0,0.0,0.0,1.0
1624263172.96875,0,0,35.63596277600354,0.0,1.0
1624263173.4375,0,0,19.235365851940585,0.0,1.0
1624263173.90625,0,0,16.23928603263185,0.0,1.0
1624263174.375,0,0,26.384167300316506,0.0,1.0
1624263174.84375,0,0,36.60941157022983,0.0,1.0
1624263175.3125,0,0,12.906134886553899,0.0,1.0
1624263175.78125,0,0,0.0,0.0,1.0
1624263176.25,0,0,89.61669579758806,0.0,1.0
1624263176.71875,0,0,0.0,0.0,1.0
1624263177.1875,0,0,-3.845784154409852,0.0,1.0
1624263177.65625,0,0,35.52667902501347,0.0,1.0
1624263178.125,0,0,7.853244774726765,0.0,1.0
1624263178.59375,0,0,19.89183973913162,0.0,1.0
1624263179.0625,0,0,19.405013109486184,0.0,1.0
1624263179.53125,0,0,0.0,0.0,1.0
1624263180.0,0,0,32.46614279660506,0.0,1.0
1624263180.46875,0,0,10.384272341115553,0.0,1.0
1624263180.9375,0,0,0.0,0.0,1.0
1624263181.40625,0,0,22.442891308723336,0.0,1.0
1624263181.875,0,0,11.66467120098559,0.0,1.0
1624263182.34375,0,0,0.0,0.0,1.0
1624263182.8125,0,0,7.353684273146223,0.0,1.0
1624263183.28125,0,0,0.0,0.0,1.0
1624263183.75,0,0,92.92902898601456,0.0,1.0
1624263184.21875,0,0,-0.6109956029474206,0.0,1.0
1624263184.6875,0,0,25.53982223751971,0.0,1.0
1624263185.15625,0,0,0.0,0.0,1.0
1624263185.625,0,0,83.64764032015684,0.0,1.0
1624263186.09375,0,0,33.21790676366957,0.0,1.0
1624263186.5625,0,0,0.0,0.0,1.0
1624263187.03125,0,0,27.014862613328297,0.0,1.0
1624263187.5,0,0,42.186462794569636,0.0,1.0
1624263187.96875,0,0,23.892532051536566,0.0,1.0
1624263188.4375,0,0,0.0,0.0,1.0
1624263188.90625,0,0,25.27550611960034,0.0,1.0
1624263189.375,0,0,32.394103968269135,0.0,1.0
1624263189.84375,0,0,-0.020037245648124175,0.0,1.0
1624263190.3125,0,0,23.709967017653103,0.0,1.0
1624263190.78125,0,0,0.0,0.0,1.0
1624263191.25,0,0,-26.33310382739304,0.0,1.0
1624263191.71875,0,0,21.28292213326967,0.0,1.0
1624263192.1875,0,0,0.0,0.0,1.0
1624263192.65625,0,0,30.037561132836622,0.0,1.0
1624263193.125,0,0,50.95216893576343,0.0,1.0
1624263193.59375,0,0,24.57372892566308,0.0,1.0
1624263194.0625,0,0,22.183557678360703,0.0,1.0
1624263194.53125,0,0,17.52981012973479,0.0,1.0
1624263195.0,0,0,11.239186987367345,0.0,1.0
1624263195.46875,0,0,0.0,0.0,1.0
1624263195.9375,0,0,19.772840455248048,0.0,1.0
1624263196.40625,0,0,0.0,0.0,1.0
1624263196.875,0,0,46.08820665040524,0.0,1.0
1624263197.34375,0,0,17.436398509661664,0.0,1.0
1624263197.8125,0,0,17.184108006600265,0.0,1.0
1624263198.28125,0,0,25.5906576414492,0.0,1.0
1624263198.75,0,0,26.130386655239086,0.0,1.0
1624263199.21875,0,0,17.496363378383556,0.0,1.0
1624263199.6875,0,0,22.52185663573424,0.0,1.0
1624263200.15625,0,0,0.0,0.0,1.0
1624263200.625,0,0,19.330820189944323,0.0,1.0
1624263201.09375,0,0,0.0,0.0,1.0
1624263201.5625,0,0,26.8293014152993,0.0,1.0
1624263202.03125,0,0,11.039809695437357,0.0,1.0
1624263202.5,0,0,0.0,0.0,1.0
1624263202.96875,0,0,37.12695147609901,0.0,1.0
1624263203.4375,0,0,0.0,0.0,1.0
1624263203.90625,0,0,24.036470969728924,0.0,1.0
1624263204.375,0,0,25.266075519778454,0.0,1.0
1624263204.84375,0,0,-5.434643901514163,0.0,1.0
1624263205.3125,0,0,78.63169706873879,0.0,1.0
1624263205.78125,0,0,0.0,0.0,1.0
1624263206.25,0,0,64.9968839813488,0.0,1.0
1624263206.71875,0,0,25.648460340491688,0.0,1.0
1624263207.1875,0,0,28.58647773364412,0.0,1.0
1624263207.65625,0,0,12.169974649823363,0.0,1.0
1624263208.125,0,0,19.366160207537128,0.0,1.0
1624263208.59375,0,0,0.0,0.0,1.0
1624263209.0625,0,0,0.0,0.0,1.0
1624263209.53125,0,0,26.729031212443942,0.0,1.0
1624263210.0,0,0,0.0,0.0,1.0
1624263210.46875,0,0,15.629186202440106,0.0,1.0
1624263210.9375,0,0,29.083665513148546,0.0,1.0
1624263211.40625,0,0,0.0,0.0,1.0
1624263211.875,0,0,20.209231308386876,0.0,1.0
1624263212.34375,0,0,42.756039033178446,0.0,1.0
1624263212.8125,0,0,59.579200106740494,0.0,1.0
1624263213.28125,0,0,-14.858907481940966,0.0,1.0
1624263213.75,0,0,43.22678881119732,0.0,1.0
1624263214.21875,0,0,0.0,0.0,1.0
1624263214.6875,0,0,23.788646458445864,0.0,1.0
1624263215.15625,0,0,0.0,0.0,1.0
1624263215.625,0,0,29.03699249550219,0.0,1.0
1624263216.09375,0,0,21.796725136829465,0.0,1.0
1624263216.5625,0,0,27.44540377591793,0.0,1.0
1624263217.03125,0,0,-5.465909387495522,0.0,1.0
1624263217.5,0,0,16.246461009406453,0.0,1.0
1624263217.96875,0,0,46.450408998414275,0.0,1.0
1624263218.4375,0,0,34.72173228428826,0.0,1.0
1624263218.90625,0,0,0.0,0.0,1.0
1624263219.375,0,0,0.0,0.0,1.0
1624263219.84375,0,0,22.70898321786064,0.0,1.0
1624263220.3125,0,0,15.662276319045672,0.0,1.0
1624263220.78125,0,0,26.132412485325297,0.0,1.0
1624263221.25,0,0,31.429884893412893,0.0,1.0
1624263221.71875,0,0,13.340878670631463,0.0,1.0
1624263222.1875,0,0,0.0,0.0,1.0
1624263222.65625,0,0,18.561323029601954,0.0,1.0
1624263223.125,0,0,0.0,0.0,1.0
1624263223.59375,0,0,0.8945319663907029,0.0,1.0
1624263224.0625,0,0,22.402341829701133,0.0,1.0
1624263224.53125,0,0,0.0,0.0,1.0
1624263225.0,0,0,50.835197177743794,0.0,1.0
1624263225.46875,0,0,34.331109322170256,0.0,1.0
1624263225.9375,0,0,0.0,0.0,1.0
1624263226.40625,0,0,25.160330378444375,0.0,1.0
1624263226.875,0,0,0.0,0.0,1.0
1624263227.34375,0,0,20.226003413215945,0.0,1.0
1624263227.8125,0,0,25.71706604081281,0.0,1.0
1624263228.28125,0,0,0.0,0.0,1.0
1624263228.75,0,0,46.92827174044772,0.0,1.0
1624263229.21875,0,0,-26.850932461612164,0.0,1.0
1624263229.6875,0,0,34.085563661209605,0.0,1.0
1624263230.15625,0,0,29.146736166641833,0.0,1.0
1624263230.625,0,0,33.746108289666864,0.0,1.0
1624263231.09375,0,0,23.439409517676747,0.0,1.0
1624263231.5625,0,0,0.0,0.0,1.0
1624263232.03125,0,0,30.902404565996775,0.0,1.0
1624263232.5,0,0,0.0,0.0,1.0
1624263232.96875,0,0,13.099393567695161,0.0,1.0
1624263233.4375,0,0,30.745286668028115,0.0,1.0
1624263233.90625,0,0,0.0,0.0,1.0
1624263234.375,0,0,19.693707854750937,0.0,1.0
1624263234.84375,0,0,0.0,0.0,1.0
1624263235.3125,0,0,29.25921558136834,0.0,1.0
1624263235.78125,0,0,0.0,0.0,1.0
1624263236.25,0,0,0.0,0.0,1.0
1624263236.71875,0,0,24.165757725379642,0.0,1.0
1624263237.1875,0,0,21.712024646583497,0.0,1.0
1624263237.65625,0,0,35.987083205306384,0.0,1.0
1624263238.125,0,0,0.0,0.0,1.0
1624263238.59375,0,0,26.218673865134555,0.0,1.0
1624263239.0625,0,0,0.0,0.0,1.0
1624263239.53125,0,0,28.38789698698775,0.0,1.0
1624263240.0,0,0,0.0,0.0,1.0
1624263240.46875,0,0,24.506654918938004,0.0,1.0
1624263240.9375,0,0,25.141608504549,0.0,1.0
1624263241.40625,0,0,24.13891974860332,0.0,1.0
1624263241.875,0,0,30.15867301640278,0.0,1.0
1624263242.34375,0,0,0.0,0.0,1.0
1624263242.8125,0,0,25.764093774210117,0.0,1.0
1624263243.28125,0,0,37.59992509707436,0.0,1.0
1624263243.75,0,0,0.0,0.0,1.0
1624263244.21875,0,0,29.635396027754954,0.0,1.0
1624263244.6875,0,0,0.0,0.0,1.0
1624263245.15625,0,0,24.847829457684703,0.0,1.0
1624263245.625,0,0,0.0,0.0,1.0
1624263246.09375,0,0,16.412232555338647,0.0,1.0
1624263246.5625,0,0,33.82592445893481,0.0,1.0
1624263247.03125,0,0,0.0,0.0,1.0
1624263247.5,0,0,73.83094155110916,0.0,1.0
1624263247.96875,0,0,0.0,0.0,1.0
1624263248.4375,0,0,16.172940701413868,0.0,1.0
1624263248.90625,0,0,35.602801406777395,0.0,1.0
1624263249.375,0,0,0.0,0.0,1.0
1624263249.84375,0,0,17.267050001493356,0.0,1.0
1624263250.3125,0,0,28.60647720580675,0.0,1.0
1624263250.78125,0,0,27.876900696884398,0.0,1.0
1624263251.25,0,0,32.30579941170454,0.0,1.0
1624263251.71875,0,0,0.0,0.0,1.0
1624263252.1875,0,0,22.365977697320595,0.0,1.0
1624263252.65625,0,0,32.270671802078155,0.0,1.0
1624263253.125,0,0,0.0,0.0,1.0
1624263253.59375,0,0,23.253965536212206,0.0,1.0
1624263254.0625,0,0,0.0,0.0,1.0
1624263254.53125,0,0,35.79499236119651,0.0,1.0
1624263255.0,0,0,0.0,0.0,1.0
1624263255.46875,0,0,17.125247521112705,0.0,1.0
1624263255.9375,0,0,28.348612490856468,0.0,1.0
1624263256.40625,0,0,0.0,0.0,1.0
1624263256.875,0,0,28.699167245306445,0.0,1.0
1624263257.34375,0,0,0.0,0.0,1.0
1624263257.8125,0,0,12.007470399118647,0.0,1.0
1624263258.28125,0,0,25.24219433500337,0.0,1.0
1624263258.75,0,0,217.92617350351617,0.0,1.0
1624263259.21875,0,0,100.41805187018582,0.0,1.0
1624263259.6875,0,0,291.8478211581457,0.0,1.0
1624263260.15625,0,0,108.29264373630014,0.0,1.0
1624263260.625,0,0,0.0,0.0,1.0
1624263261.09375,0,0,66.37235231420708,0.0,1.0
1624263261.5625,0,0,357.0151316892827,0.0,1.0
1624263262.03125,0,0,0.0,0.0,1.0
1624263262.5,0,0,227.74308067238658,0.0,1.0
1624263262.96875,0,0,0.0,0.0,1.0
1624263263.4375,0,0,16.84678197353278,0.0,1.0
1624263263.90625,0,0,10.459359780746432,0.0,1.0
1624263264.375,0,0,99.29983361671341,0.0,1.0
1624263264.84375,0,0,0.0,0.0,1.0
1624263265.3125,0,0,102.88011069621362,0.0,1.0
1624263265.78125,0,0,7.418614481530302,0.0,1.0
1624263266.25,0,0,49.05352264879177,0.0,1.0
1624263266.71875,0,0,0.0,0.0,1.0
1624263267.1875,0,0,15.193780754115823,0.0,1.0
1624263267.65625,0,0,47.726130487275675,0.0,1.0
1624263268.125,0,0,57.294241385139834,0.0,1.0
1624263268.59375,0,0,0.0,0.0,1.0
1624263269.0625,0,0,4.192030016559526,0.0,1.0
1624263269.53125,0,0,20.832666652765678,0.0,1.0
1624263270.0,0,0,136.91174211671975,0.0,1.0
1624263270.46875,0,0,-16.912534363221102,0.0,1.0
1624263270.9375,0,0,59.16408516469232,0.0,1.0
1624263271.40625,0,0,0.0,0.0,1.0
1624263271.875,0,0,38.92550466317331,0.0,1.0
1624263272.34375,0,0,18.103203971575642,0.0,1.0
1624263272.8125,0,0,17.33993548224113,0.0,1.0
1624263273.28125,0,0,24.725053884229528,0.0,1.0
1624263273.75,0,0,0.0,0.0,1.0
1624263274.21875,0,0,36.56170175223239,0.0,1.0
1624263274.6875,0,0,22.02219125251234,0.0,1.0
1624263275.15625,0,0,14.958475698929236,0.0,1.0
1624263275.625,0,0,36.1149075780227,0.0,1.0
1624263276.09375,0,0,1.2936229392309457,0.0,1.0
1624263276.5625,0,0,3.7106068891032935,0.0,1.0
1624263277.03125,0,0,58.64165989677759,0.0,1.0
1624263277.5,0,0,55.14040491275394,0.0,1.0
1624263277.96875,0,0,-25.993137635333557,0.0,1.0
1624263278.4375,0,0,24.711952916465492,0.0,1.0
1624263278.90625,0,0,19.140975023604657,0.0,1.0
1624263279.375,0,0,0.1673229974707972,0.0,1.0
1624263279.84375,0,0,7.146773283271433,0.0,1.0
1624263280.3125,0,0,0.0,0.0,1.0
1624263280.78125,0,0,17.093887163701883,0.0,1.0
1624263281.25,0,0,0.0,0.0,1.0
1624263281.71875,0,0,0.0,0.0,1.0
1624263282.1875,0,0,14.442784739327733,0.0,1.0
1624263282.65625,0,0,0.0,0.0,1.0
1624263283.125,0,0,23.785201146398464,0.0,1.0
1624263283.59375,0,0,0.28814238341248843,0.0,1.0
1624263284.0625,0,0,-0.12890844182667466,0.0,1.0
1624263284.53125,0,0,15.069109886213065,0.0,1.0
1624263285.0,0,0,28.959698052637076,0.0,1.0
1624263285.46875,0,0,23.96751530906768,0.0,1.0
1624263285.9375,0,0,12.909015137772482,0.0,1.0
1624263286.40625,0,0,14.01956348804611,0.0,1.0
1624263286.875,0,0,11.675020566420509,0.0,1.0
1624263287.34375,0,0,35.45113307281466,0.0,1.0
1624263287.8125,0,0,6.029278458783171,0.0,1.0
1624263288.28125,0,0,0.0,0.0,1.0
1624263288.75,0,0,104.6752154023865,0.0,1.0
1624263289.21875,0,0,0.0,0.0,1.0
1624263289.6875,0,0,26.380232957300926,0.0,1.0
1624263290.15625,0,0,12.748453210693645,0.0,1.0
1624263290.625,0,0,4.201902065466693,0.0,1.0
1624263291.09375,0,0,12.42491141215722,0.0,1.0
1624263291.5625,0,0,13.591524594880449,0.0,1.0
1624263292.03125,0,0,13.92147641484829,0.0,1.0
1624263292.5,0,0,30.53160597761024,0.0,1.0
1624263292.96875,0,0,12.61595509265905,0.0,1.0
1624263293.4375,0,0,6.239657177592255,0.0,1.0
1624263293.90625,0,0,14.972324205322328,0.0,1.0
1624263294.375,0,0,-3.7996662332536846,0.0,1.0
1624263294.84375,0,0,21.526634704652615,0.0,1.0
1624263295.3125,0,0,-0.5157936535928898,0.0,1.0
1624263295.78125,0,0,0.0,0.0,1.0
1624263296.25,0,0,74.26413078076895,0.0,1.0
1624263296.71875,0,0,0.0,0.0,1.0
1624263297.1875,0,0,19.103898808505317,0.0,1.0
1624263297.65625,0,0,14.4179823381563,0.0,1.0
1624263298.125,0,0,31.168524959556034,0.0,1.0
1624263298.59375,0,0,0.0,0.0,1.0
1624263299.0625,0,0,8.479966305452304,0.0,1.0
1624263299.53125,0,0,0.0,0.0,1.0
1624263300.0,0,0,188.1035740034669,0.0,1.0
1624263300.46875,0,0,0.0,0.0,1.0
1624263300.9375,0,0,47.37737426149902,0.0,1.0
1624263301.40625,0,0,37.99574788603811,0.0,1.0
1624263301.875,0,0,22.927280185503832,0.0,1.0
1624263302.34375,0,0,2.155418221125266,0.0,1.0
1624263302.8125,0,0,19.13414600279751,0.0,1.0
1624263303.28125,0,0,0.0,0.0,1.0
1624263303.75,0,0,19.605595512158466,0.0,1.0
1624263304.21875,0,0,10.06195040721729,0.0,1.0
1624263304.6875,0,0,0.0,0.0,1.0
1624263305.15625,0,0,21.27408811210846,0.0,1.0
1624263305.625,0,0,23.13587645944777,0.0,1.0
1624263306.09375,0,0,26.186757201356176,0.0,1.0
1624263306.5625,0,0,11.095267682120799,0.0,1.0
1624263307.03125,0,0,2.825814235662217,0.0,1.0
1624263307.5,0,0,58.55346734842392,0.0,1.0
1624263307.96875,0,0,11.196337429254124,0.0,1.0
1624263308.4375,0,0,0.0,0.0,1.0
1624263308.90625,0,0,0.0,0.0,1.0
1624263309.375,0,0,91.30815540933129,0.0,1.0
1624263309.84375,0,0,22.775102228859645,0.0,1.0
1624263310.3125,0,0,24.96505501476721,0.0,1.0
1624263310.78125,0,0,0.0,0.0,1.0
1624263311.25,0,0,36.20919058909733,0.0,1.0
1624263311.71875,0,0,19.22747315329946,0.0,1.0
1624263312.1875,0,0,15.579764229990161,0.0,1.0
1624263312.65625,0,0,16.010371170052878,0.0,1.0
1624263313.125,0,0,0.0,0.0,1.0
1624263313.59375,0,0,2.027301826058221,0.0,1.0
1624263314.0625,0,0,44.13177085112194,0.0,1.0
1624263314.53125,0,0,-12.124974180712618,0.0,1.0
1624263315.0,0,0,47.1822297004786,0.0,1.0
1624263315.46875,0,0,0.0,0.0,1.0
1624263315.9375,0,0,17.58893590593834,0.0,1.0
1624263316.40625,0,0,16.89558650036547,0.0,1.0
1624263316.875,0,0,0.0,0.0,1.0
1624263317.34375,0,0,14.631991900145762,0.0,1.0
1624263317.8125,0,0,0.0,0.0,1.0
1624263318.28125,0,0,25.51249290033651,0.0,1.0
1624263318.75,0,0,13.193091057877725,0.0,1.0
1624263319.21875,0,0,12.872626938216802,0.0,1.0
1624263319.6875,0,0,15.248198669765328,0.0,1.0
1624263320.15625,0,0,0.0,0.0,1.0
1624263320.625,0,0,17.417979445570452,0.0,1.0
1624263321.09375,0,0,17.471962225679427,0.0,1.0
1624263321.5625,0,0,17.386924008427545,0.0,1.0
1624263322.03125,0,0,21.16558422060095,0.0,1.0
1624263322.5,0,0,0.0,0.0,1.0
1624263322.96875,0,0,-0.35982886737983494,0.0,1.0
1624263323.4375,0,0,78.34675923464621,0.0,1.0
1624263323.90625,0,0,-42.69522945954304,0.0,1.0
1624263324.375,0,0,0.0,0.0,1.0
1624263324.84375,0,0,30.77159710819439,0.0,1.0
1624263325.3125,0,0,24.065891064005193,0.0,1.0
1624263325.78125,0,0,16.67009792450078,0.0,1.0
1624263326.25,0,0,0.0,0.0,1.0
1624263326.71875,0,0,27.65455434193366,0.0,1.0
1624263327.1875,0,0,14.785805457445429,0.0,1.0
1624263327.65625,0,0,0.0,0.0,1.0
1624263328.125,0,0,33.20417463328155,0.0,1.0
1624263328.59375,0,0,34.48839490671131,0.0,1.0
1624263329.0625,0,0,0.0,0.0,1.0
1624263329.53125,0,0,28.877851159580917,0.0,1.0
1624263330.0,0,0,7.212461886808963,0.0,1.0
1624263330.46875,0,0,43.65837811743204,0.0,1.0
1624263330.9375,0,0,11.157318827849718,0.0,1.0
1624263331.40625,0,0,29.01608383251958,0.0,1.0
1624263331.875,0,0,13.62183172678194,0.0,1.0
1624263332.34375,0,0,32.29696086068655,0.0,1.0
1624263332.8125,0,0,19.70250164392835,0.0,1.0
1624263333.28125,0,0,32.52039968512327,0.0,1.0
1624263333.75,0,0,67.9641479197295,0.0,1.0
1624263334.21875,0,0,13.090755600987347,0.0,1.0
1624263334.6875,0,0,14.360710393175614,0.0,1.0
1624263335.15625,0,0,17.74630501477594,0.0,1.0
1624263335.625,0,0,9.05592498002469,0.0,1.0
1624263336.09375,0,0,25.7070225026153,0.0,1.0
1624263336.5625,0,0,15.712920779479228,0.0,1.0
1624263337.03125,0,0,6.791522898955327,0.0,1.0
1624263337.5,0,0,20.789685720345663,0.0,1.0
1624263337.96875,0,0,27.566020190775916,0.0,1.0
1624263338.4375,0,0,0.5922030697406456,0.0,1.0
1624263338.90625,0,0,7.796980932454966,0.0,1.0
1624263339.375,0,0,116.43081714041772,0.0,1.0
1624263339.84375,0,0,0.0,0.0,1.0
1624263340.3125,0,0,38.311159905050204,0.0,1.0
1624263340.78125,0,0,13.36810165734038,0.0,1.0
1624263341.25,0,0,0.0,0.0,1.0
1624263341.71875,0,0,41.67420045822911,0.0,1.0
1624263342.1875,0,0,10.37552778808152,0.0,1.0
1624263342.65625,0,0,34.52078094996889,0.0,1.0
1624263343.125,0,0,21.6053846237082,0.0,1.0
1624263343.59375,0,0,27.387885704752104,0.0,1.0
1624263344.0625,0,0,14.797316260931337,0.0,1.0
1624263344.53125,0,0,13.155503474197623,0.0,1.0
1624263345.0,0,0,32.00241080469679,0.0,1.0
1624263345.46875,0,0,15.820729761435532,0.0,1.0
1624263345.9375,0,0,9.33111963717381,0.0,1.0
1624263346.40625,0,0,0.0,0.0,1.0
1624263346.875,0,0,0.0,0.0,1.0
1624263347.34375,0,0,94.19995536790825,0.0,1.0
1624263347.8125,0,0,47.3585982750177,0.0,1.0
1624263348.28125,0,0,16.45759676940434,0.0,1.0
1624263348.75,0,0,10.6787119898382,0.0,1.0
1624263349.21875,0,0,35.89113163310426,0.0,1.0
1624263349.6875,0,0,0.0,0.0,1.0
1624263350.15625,0,0,14.039023753748587,0.0,1.0
1624263350.625,0,0,0.0,0.0,1.0
1624263351.09375,0,0,33.551030093049185,0.0,1.0
1624263351.5625,0,0,14.390682325366063,0.0,1.0
1624263352.03125,0,0,15.829174170246725,0.0,1.0
1624263352.5,0,0,12.842978506198182,0.0,1.0
1624263352.96875,0,0,14.020546964832986,0.0,1.0
1624263353.4375,0,0,9.271256965153544,0.0,1.0
1624263353.90625,0,0,0.0,0.0,1.0
1624263354.375,0,0,21.529736919078356,0.0,1.0
1624263354.84375,0,0,17.886162786319268,0.0,1.0
1624263355.3125,0,0,9.224670412058927,0.0,1.0
1624263355.78125,0,0,15.24035697786986,0.0,1.0
1624263356.25,0,0,6.914901679439853,0.0,1.0
1624263356.71875,0,0,28.00870978635154,0.0,1.0
1624263357.1875,0,0,3.6512561262367935,0.0,1.0
1624263357.65625,0,0,6.749475957844117,0.0,1.0
1624263358.125,0,0,17.198986456316394,0.0,1.0
1624263358.59375,0,0,-3.2339612991871,0.0,1.0
1624263359.0625,0,0,15.05541403494913,0.0,1.0
1624263359.53125,0,0,0.0,0.0,1.0
1624263360.0,0,0,15.059592331635907,0.0,1.0
1624263360.46875,0,0,16.255874036161885,0.0,1.0
1624263360.9375,0,0,-4.402154723060146,0.0,1.0
1624263361.40625,0,0,12.440065152215732,0.0,1.0
1624263361.875,0,0,0.0,0.0,1.0
1624263362.34375,0,0,23.507501234862616,0.0,1.0
1624263362.8125,0,0,0.0,0.0,1.0
1624263363.28125,0,0,12.918605505259562,0.0,1.0
1624263363.75,0,0,19.399154790341097,0.0,1.0
1624263364.21875,0,0,8.443551621362948,0.0,1.0
1624263364.6875,0,0,9.69972021057532,0.0,1.0
1624263365.15625,0,0,0.0,0.0,1.0
1624263365.625,0,0,69.64091955093758,0.0,1.0
1624263366.09375,0,0,0.0,0.0,1.0
1624263366.5625,0,0,18.164818296275214,0.0,1.0
1624263367.03125,0,0,22.987217732471667,0.0,1.0
1624263367.5,0,0,0.0,0.0,1.0
1624263367.96875,0,0,9.035809965081407,0.0,1.0
1624263368.4375,0,0,17.64929282893254,0.0,1.0
1624263368.90625,0,0,0.0,0.0,1.0
1624263369.375,0,0,11.436301240885264,0.0,1.0
1624263369.84375,0,0,0.0,0.0,1.0
1624263370.3125,0,0,13.707423996878754,0.0,1.0
1624263370.78125,0,0,11.024154254935842,0.0,1.0
1624263371.25,0,0,8.090187894471677,0.0,1.0
1624263371.71875,0,0,9.143202651232981,0.0,1.0
1624263372.1875,0,0,12.141740669395112,0.0,1.0
1624263372.65625,0,0,10.500129839171743,0.0,1.0
1624263373.125,0,0,13.749307607971911,0.0,1.0
1624263373.59375,0,0,0.0,0.0,1.0
1624263374.0625,0,0,0.0,0.0,1.0
1624263374.53125,0,0,26.027240238008435,0.0,1.0
1624263375.0,0,0,0.0,0.0,1.0
1624263375.46875,0,0,30.74321992011318,0.0,1.0
1624263375.9375,0,0,18.80971649569471,0.0,1.0
1624263376.40625,0,0,0.0,0.0,1.0
1624263376.875,0,0,-3.5153083885283527,0.0,1.0
1624263377.34375,0,0,-9.712644362976452,0.0,1.0
1624263377.8125,0,0,71.48398358586071,0.0,1.0
1624263378.28125,0,0,0.0,0.0,1.0
1624263378.75,0,0,29.039320123326522,0.0,1.0
1624263379.21875,0,0,51.92489925923558,0.0,1.0
1624263379.6875,0,0,0.0,0.0,1.0
1624263380.15625,0,0,5.936297356123292,0.0,1.0
1624263380.625,0,0,26.68395641145855,0.0,1.0
1624263381.09375,0,0,0.0,0.0,1.0
1624263381.5625,0,0,12.573815425454685,0.0,1.0
1624263382.03125,0,0,0.0,0.0,1.0
1624263382.5,0,0,36.93127947175665,0.0,1.0
1624263382.96875,0,0,56.064494931909195,0.0,2.0
1624263383.4375,0,0,0.0,0.0,2.0
1624263383.90625,0,0,149.26316792057654,0.0,2.0
1624263384.375,0,0,0.0,0.0,2.0
1624263384.84375,0,0,213.91870906637834,0.0,2.0
1624263385.3125,0,0,0.0,0.0,2.0
1624263385.78125,0,0,147.12091547827316,0.0,2.0
1624263386.25,0,0,18.728427038575873,0.0,2.0
1624263386.71875,0,0,0.0,0.0,2.0
1624263387.1875,0,0,80.60358689515921,0.0,2.0
1624263387.65625,0,0,0.0,0.0,2.0
1624263388.125,0,0,9.357834255461201,0.0,2.0
1624263388.59375,0,0,36.97286482281047,0.0,2.0
1624263389.0625,0,0,0.0,0.0,2.0
1624263389.53125,0,0,31.247765195778545,0.0,2.0
1624263390.0,0,0,7.191044997188261,0.0,2.0
1624263390.46875,0,0,0.0,0.0,2.0
1624263390.9375,0,0,144.27412993154283,0.0,2.0
1624263391.40625,0,0,-8.380239378932636,0.0,2.0
1624263391.875,0,0,0.0,0.0,2.0
1624263392.34375,0,0,100.77329549096386,0.0,2.0
1624263392.8125,0,0,-7.216558481679368,0.0,2.0
1624263393.28125,0,0,24.209625525814296,0.0,2.0
1624263393.75,0,0,29.39900764925244,0.0,2.0
1624263394.21875,0,0,14.686142860829065,0.0,2.0
1624263394.6875,0,0,0.0,0.0,2.0
1624263395.15625,0,0,0.0,0.0,2.0
1624263395.625,0,0,22.86550876013183,0.0,2.0
1624263396.09375,0,0,22.640772518433423,0.0,2.0
1624263396.5625,0,0,23.871579573914598,0.0,2.0
1624263397.03125,0,0,18.926500902645923,0.0,2.0
1624263397.5,0,0,0.0,0.0,2.0
1624263397.96875,0,0,21.230496496221164,0.0,2.0
1624263398.4375,0,0,17.334374093120807,0.0,2.0
1624263398.90625,0,0,12.023409994004156,0.0,2.0
1624263399.375,0,0,0.0,0.0,2.0
1624263399.84375,0,0,13.35921225347876,0.0,2.0
1624263400.3125,0,0,7.404092200479952,0.0,2.0
1624263400.78125,0,0,2.281178065768934,0.0,2.0
1624263401.25,0,0,13.052977394185685,0.0,2.0
1624263401.71875,0,0,5.7818939941573335,0.0,2.0
1624263402.1875,0,0,13.167719702274422,0.0,2.0
1624263402.65625,0,0,3.6515327435137532,0.0,2.0
1624263403.125,0,0,24.577035974940966,0.0,2.0
1624263403.59375,0,0,22.834362756195464,0.0,2.0
1624263404.0625,0,0,23.761731480679668,0.0,2.0
1624263404.53125,0,0,0.0,0.0,2.0
1624263405.0,0,0,0.0,0.0,2.0
1624263405.46875,0,0,35.176139367789,0.0,2.0
1624263405.9375,0,0,31.392289895626337,0.0,2.0
1624263406.40625,0,0,0.0,0.0,2.0
1624263406.875,0,0,29.437950052533502,0.0,2.0
1624263407.34375,0,0,24.88060824124775,0.0,2.0
1624263407.8125,0,0,0.0,0.0,2.0
1624263408.28125,0,0,29.71221861270091,0.0,2.0
1624263408.75,0,0,25.2643926222854,0.0,2.0
1624263409.21875,0,0,18.51420320878161,0.0,2.0
1624263409.6875,0,0,30.144226010407937,0.0,2.0
1624263410.15625,0,0,20.171580899164855,0.0,2.0
1624263410.625,0,0,0.0,0.0,2.0
1624263411.09375,0,0,12.044471098438393,0.0,2.0
1624263411.5625,0,0,89.75694270836215,0.0,2.0
1624263412.03125,0,0,-7.942882530502185,0.0,2.0
1624263412.5,0,0,-13.657520401914947,0.0,2.0
1624263412.96875,0,0,29.288415691782642,0.0,2.0
1624263413.4375,0,0,0.0,0.0,2.0
1624263413.90625,0,0,36.47072374394042,0.0,2.0
1624263414.375,0,0,15.159680275958499,0.0,2.0
1624263414.84375,0,0,19.479745132946054,0.0,2.0
1624263415.3125,0,0,20.144524524685835,0.0,2.0
1624263415.78125,0,0,19.262961141011193,0.0,2.0
1624263416.25,0,0,0.0,0.0,2.0
1624263416.71875,0,0,19.80541362608503,0.0,2.0
1624263417.1875,0,0,20.476339122613883,0.0,2.0
1624263417.65625,0,0,0.0,0.0,2.0
1624263418.125,0,0,19.11258203675399,0.0,2.0
1624263418.59375,0,0,0.0,0.0,2.0
1624263419.0625,0,0,20.707242557692513,0.0,2.0
1624263419.53125,0,0,19.374126012600378,0.0,2.0
1624263420.0,0,0,10.819842864073012,0.0,2.0
1624263420.46875,0,0,22.65403536546713,0.0,2.0
1624263420.9375,0,0,26.25603180398303,0.0,2.0
1624263421.40625,0,0,0.0,0.0,2.0
1624263421.875,0,0,23.506735861520873,0.0,2.0
1624263422.34375,0,0,0.0,0.0,2.0
1624263422.8125,0,0,23.045382959074608,0.0,2.0
1624263423.28125,0,0,24.822612899131578,0.0,2.0
1624263423.75,0,0,0.0,0.0,2.0
1624263424.21875,0,0,24.325029026055468,0.0,2.0
1624263424.6875,0,0,22.686016222414302,0.0,2.0
1624263425.15625,0,0,16.245098339668797,0.0,2.0
1624263425.625,0,0,22.39028498220572,0.0,2.0
1624263426.09375,0,0,0.0,0.0,2.0
1624263426.5625,0,0,24.46943368077579,0.0,2.0
1624263427.03125,0,0,21.52264586988202,0.0,2.0
1624263427.5,0,0,18.800767239937258,0.0,2.0
1624263427.96875,0,0,26.347359614847836,0.0,2.0
1624263428.4375,0,0,0.0,0.0,2.0
1624263428.90625,0,0,23.67671532142638,0.0,2.0
1624263429.375,0,0,0.0,0.0,2.0
1624263429.84375,0,0,22.46513920109906,0.0,2.0
1624263430.3125,0,0,19.58043234812266,0.0,2.0
1624263430.78125,0,0,13.314354462495139,0.0,2.0
1624263431.25,0,0,25.8694543875562,0.0,2.0
1624263431.71875,0,0,24.016111621412158,0.0,2.0
1624263432.1875,0,0,0.0,0.0,2.0
1624263432.65625,0,0,21.929190874214193,0.0,2.0
1624263433.125,0,0,0.0,0.0,2.0
1624263433.59375,0,0,20.6427388742995,0.0,2.0
1624263434.0625,0,0,22.627201668034104,0.0,2.0
1624263434.53125,0,0,0.0,0.0,2.0
1624263435.0,0,0,25.201353868653246,0.0,2.0
1624263435.46875,0,0,0.0,0.0,2.0
1624263435.9375,0,0,22.22283382419552,0.0,2.0
1624263436.40625,0,0,0.0,0.0,2.0
1624263436.875,0,0,20.891479392957002,0.0,2.0
1624263437.34375,0,0,19.045201131476826,0.0,2.0
1624263437.8125,0,0,14.078924637606901,0.0,2.0
1624263438.28125,0,0,22.377412329734437,0.0,2.0
1624263438.75,0,0,0.0,0.0,2.0
1624263439.21875,0,0,0.0,0.0,2.0
1624263439.6875,0,0,21.102355820419465,0.0,2.0
1624263440.15625,0,0,15.970540680494842,0.0,2.0
1624263440.625,0,0,22.2725567405695,0.0,2.0
1624263441.09375,0,0,24.195555274843443,0.0,2.0
1624263441.5625,0,0,0.0,0.0,2.0
1624263442.03125,0,0,25.0971734247133,0.0,2.0
1624263442.5,0,0,0.0,0.0,2.0
1624263442.96875,0,0,20.36099763884349,0.0,2.0
1624263443.4375,0,0,18.7426633513937,0.0,2.0
1624263443.90625,0,0,0.0,0.0,2.0
1624263444.375,0,0,26.856637931104874,0.0,2.0
1624263444.84375,0,0,22.46787960028604,0.0,2.0
1624263445.3125,0,0,0.0,0.0,2.0
1624263445.78125,0,0,18.276932074173466,0.0,2.0
1624263446.25,0,0,20.36074785836841,0.0,2.0
1624263446.71875,0,0,0.0,0.0,2.0
1624263447.1875,0,0,22.480523452129354,0.0,2.0
1624263447.65625,0,0,0.0,0.0,2.0
1624263448.125,0,0,0.0,0.0,2.0
1624263448.59375,0,0,18.677688129000764,0.0,2.0
1624263449.0625,0,0,0.0,0.0,2.0
1624263449.53125,0,0,21.192407445904813,0.0,2.0
1624263450.0,0,0,26.57446758306829,0.0,2.0
1624263450.46875,0,0,0.0,0.0,2.0
1624263450.9375,0,0,23.327982306087165,0.0,2.0
1624263451.40625,0,0,0.0,0.0,2.0
1624263451.875,0,0,19.15131539112978,0.0,2.0
1624263452.34375,0,0,17.73054980814738,0.0,2.0
1624263452.8125,0,0,14.379518497288204,0.0,2.0
1624263453.28125,0,0,22.06335876116628,0.0,2.0
1624263453.75,0,0,21.641413253113267,0.0,2.0
1624263454.21875,0,0,23.46387721644161,0.0,2.0
1624263454.6875,0,0,0.0,0.0,2.0
1624263455.15625,0,0,22.469993148403304,0.0,2.0
1624263455.625,0,0,23.45320490122066,0.0,2.0
1624263456.09375,0,0,14.829010721083186,0.0,2.0
1624263456.5625,0,0,27.769001725952617,0.0,2.0
1624263457.03125,0,0,0.0,0.0,2.0
1624263457.5,0,0,31.74248772603207,0.0,2.0
1624263457.96875,0,0,24.244400917051635,0.0,2.0
1624263458.4375,0,0,17.896588453502986,0.0,2.0
1624263458.90625,0,0,31.072328873545747,0.0,2.0
1624263459.375,0,0,0.0,0.0,2.0
1624263459.84375,0,0,24.352848433753415,0.0,2.0
1624263460.3125,0,0,0.0,0.0,2.0
1624263460.78125,0,0,79.63766750749036,0.0,2.0
1624263461.25,0,0,4.7070327492021375,0.0,2.0
1624263461.71875,0,0,33.284647393074835,0.0,2.0
1624263462.1875,0,0,32.00384635076259,0.0,2.0
1624263462.65625,0,0,24.302974296316027,0.0,2.0
1624263463.125,0,0,0.0,0.0,2.0
1624263463.59375,0,0,27.753237186871022,0.0,2.0
1624263464.0625,0,0,26.557752382857945,0.0,2.0
1624263464.53125,0,0,0.0,0.0,2.0
1624263465.0,0,0,25.739887873626117,0.0,2.0
1624263465.46875,0,0,19.841926369462996,0.0,2.0
1624263465.9375,0,0,0.0,0.0,2.0
1624263466.40625,0,0,22.32305556297929,0.0,2.0
1624263466.875,0,0,0.0,0.0,2.0
1624263467.34375,0,0,20.11578059150167,0.0,2.0
1624263467.8125,0,0,23.597834846276395,0.0,2.0
1624263468.28125,0,0,0.0,0.0,2.0
1624263468.75,0,0,26.452543717132937,0.0,2.0
1624263469.21875,0,0,0.0,0.0,2.0
1624263469.6875,0,0,30.548128242818436,0.0,2.0
1624263470.15625,0,0,3.209048011853873,0.0,2.0
1624263470.625,0,0,-5.788006733371448,0.0,2.0
1624263471.09375,0,0,173.2639621269242,0.0,2.0
1624263471.5625,0,0,-29.191811303326475,0.0,2.0
1624263472.03125,0,0,0.0,0.0,2.0
1624263472.5,0,0,201.56246596380794,0.0,2.0
1624263472.96875,0,0,0.0,0.0,2.0
1624263473.4375,0,0,139.52942565285375,0.0,2.0
1624263473.90625,0,0,2.0302407516097314,0.0,2.0
1624263474.375,0,0,0.0,0.0,2.0
1624263474.84375,0,0,0.0,0.0,2.0
1624263475.3125,0,0,75.02866048768595,0.0,2.0
1624263475.78125,0,0,168.64657873726318,0.0,2.0
1624263476.25,0,0,0.0,0.0,2.0
1624263476.71875,0,0,95.84059402089345,0.0,2.0
1624263477.1875,0,0,0.0,0.0,2.0
1624263477.65625,0,0,129.85898072112465,0.0,2.0
1624263478.125,0,0,0.0,0.0,2.0
1624263478.59375,0,0,-64.92001718252993,0.0,2.0
1624263479.0625,0,0,0.0,0.0,2.0
1624263479.53125,0,0,186.93737972734345,0.0,2.0
1624263480.0,0,0,172.38560413604094,0.0,2.0
1624263480.46875,0,0,0.0,0.0,2.0
1624263480.9375,0,0,137.2130704861604,0.0,2.0
1624263481.40625,0,0,0.0,0.0,2.0
1624263481.875,0,0,278.9265777544952,0.0,2.0
1624263482.34375,0,0,0.0,0.0,2.0
1624263482.8125,0,0,124.26614619248352,0.0,2.0
1624263483.28125,0,0,0.0,0.0,2.0
1624263483.75,0,0,137.19630677097481,0.0,2.0
1624263484.21875,0,0,40.21946465570738,0.0,2.0
1624263484.6875,0,0,0.0,0.0,2.0
1624263485.15625,0,0,93.95050851175932,0.0,2.0
1624263485.625,0,0,0.0,0.0,2.0
1624263486.09375,0,0,18.493169768051775,0.0,2.0
1624263486.5625,0,0,24.61387014128899,0.0,2.0
1624263487.03125,0,0,13.32098721808537,0.0,2.0
1624263487.5,0,0,16.765875423818013,0.0,2.0
1624263487.96875,0,0,11.409229603762864,0.0,2.0
1624263488.4375,0,0,13.455134819470825,0.0,2.0
1624263488.90625,0,0,25.222802275751427,0.0,2.0
1624263489.375,0,0,15.263393032109112,0.0,2.0
1624263489.84375,0,0,0.0,0.0,2.0
1624263490.3125,0,0,15.33541778693325,0.0,2.0
1624263490.78125,0,0,15.792255063901683,0.0,2.0
1624263491.25,0,0,15.553513228423798,0.0,2.0
1624263491.71875,0,0,0.0,0.0,2.0
1624263492.1875,0,0,21.127606280179418,0.0,2.0
1624263492.65625,0,0,18.536553592175622,0.0,2.0
1624263493.125,0,0,0.0,0.0,2.0
1624263493.59375,0,0,23.15404537633176,0.0,2.0
1624263494.0625,0,0,22.345472989935846,0.0,2.0
1624263494.53125,0,0,0.0,0.0,2.0
1624263495.0,0,0,19.40720008714415,0.0,2.0
1624263495.46875,0,0,25.92996807277251,0.0,2.0
1624263495.9375,0,0,0.0,0.0,2.0
1624263496.40625,0,0,21.41873948620972,0.0,2.0
1624263496.875,0,0,17.127096199349904,0.0,2.0
1624263497.34375,0,0,9.970069023296823,0.0,2.0
1624263497.8125,0,0,24.372987515208386,0.0,2.0
1624263498.28125,0,0,0.0,0.0,2.0
1624263498.75,0,0,28.639235992670123,0.0,2.0
1624263499.21875,0,0,27.97015882957377,0.0,2.0
1624263499.6875,0,0,0.0,0.0,2.0
1624263500.15625,0,0,21.947535450424986,0.0,2.0
1624263500.625,0,0,24.783233530267466,0.0,2.0
1624263501.09375,0,0,15.291991278606481,0.0,2.0
1624263501.5625,0,0,31.944294602235022,0.0,2.0
1624263502.03125,0,0,0.0,0.0,2.0
1624263502.5,0,0,22.994733787532123,0.0,2.0
1624263502.96875,0,0,22.058397944901433,0.0,2.0
1624263503.4375,0,0,21.319920082993914,0.0,2.0
1624263503.90625,0,0,28.809746106630065,0.0,2.0
1624263504.375,0,0,0.0,0.0,2.0
1624263504.84375,0,0,18.80383589949652,0.0,2.0
1624263505.3125,0,0,0.0,0.0,2.0
1624263505.78125,0,0,23.88701139470492,0.0,2.0
1624263506.25,0,0,0.0,0.0,2.0
1624263506.71875,0,0,22.866986838979162,0.0,2.0
1624263507.1875,0,0,22.91471564768774,0.0,2.0
1624263507.65625,0,0,0.0,0.0,2.0
1624263508.125,0,0,25.609483878817837,0.0,2.0
1624263508.59375,0,0,24.789101772909166,0.0,2.0
1624263509.0625,0,0,18.56166049011393,0.0,2.0
1624263509.53125,0,0,21.83900070636588,0.0,2.0
1624263510.0,0,0,17.95944451697398,0.0,2.0
1624263510.46875,0,0,18.797726653331505,0.0,2.0
1624263510.9375,0,0,17.7631541684459,0.0,2.0
1624263511.40625,0,0,12.466006205478637,0.0,2.0
1624263511.875,0,0,16.723427136977456,0.0,2.0
1624263512.34375,0,0,23.017935467629968,0.0,2.0
1624263512.8125,0,0,0.0,0.0,2.0
1624263513.28125,0,0,24.46438502378716,0.0,2.0
1624263513.75,0,0,0.0,0.0,2.0
1624263514.21875,0,0,0.0,0.0,2.0
1624263514.6875,0,0,29.815389759217183,0.0,2.0
1624263515.15625,0,0,0.0,0.0,2.0
1624263515.625,0,0,46.14070773479444,0.0,2.0
1624263516.09375,0,0,14.548304127976113,0.0,2.0
1624263516.5625,0,0,10.257197033755254,0.0,2.0
1624263517.03125,0,0,32.85338883301778,0.0,2.0
1624263517.5,0,0,7.8259142006096205,0.0,2.0
1624263517.96875,0,0,0.0,0.0,2.0
1624263518.4375,0,0,36.093812768911334,0.0,2.0
1624263518.90625,0,0,75.82454325696351,0.0,2.0
1624263519.375,0,0,0.0,0.0,2.0
1624263519.84375,0,0,0.0,0.0,2.0
1624263520.3125,0,0,670.1251327258165,0.0,2.0
1624263520.78125,0,0,3.0614868229185634,0.0,2.0
1624263521.25,0,0,60.659205173566065,0.0,2.0
1624263521.71875,0,0,26.93059522620132,0.0,2.0
1624263522.1875,0,0,0.0,0.0,2.0
1624263522.65625,0,0,0.0,0.0,2.0
1624263523.125,0,0,52.97397549890162,0.0,2.0
1624263523.59375,0,0,61.76182520231383,0.0,2.0
1624263524.0625,0,0,-20.199423640438404,0.0,2.0
1624263524.53125,0,0,12.1378645995531,0.0,2.0
1624263525.0,0,0,31.246256726367747,0.0,2.0
1624263525.46875,0,0,2.760199104271375,0.0,2.0
1624263525.9375,0,0,28.74628164646315,0.0,2.0
1624263526.40625,0,0,3.0059611786224836,0.0,2.0
1624263526.875,0,0,34.184007439057225,0.0,2.0
1624263527.34375,0,0,17.75133640939484,0.0,2.0
1624263527.8125,0,0,22.58173636573584,0.0,2.0
1624263528.28125,0,0,0.0,0.0,2.0
1624263528.75,0,0,0.0,0.0,2.0
1624263529.21875,0,0,53.0753645799639,0.0,2.0
1624263529.6875,0,0,-5.998744529895668,0.0,2.0
1624263530.15625,0,0,59.185781737743184,0.0,2.0
1624263530.625,0,0,0.0,0.0,2.0
1624263531.09375,0,0,2.2625306952620754,0.0,2.0
1624263531.5625,0,0,20.978663042816123,0.0,2.0
1624263532.03125,0,0,23.261846338963146,0.0,2.0
1624263532.5,0,0,18.884141045441833,0.0,2.0
1624263532.96875,0,0,20.45587498139848,0.0,2.0
1624263533.4375,0,0,0.0,0.0,2.0
1624263533.90625,0,0,18.706443365286987,0.0,2.0
1624263534.375,0,0,17.79515068450118,0.0,2.0
1624263534.84375,0,0,0.0,0.0,2.0
1624263535.3125,0,0,16.212769759873176,0.0,2.0
1624263535.78125,0,0,0.0,0.0,2.0
1624263536.25,0,0,13.66602485957724,0.0,2.0
1624263536.71875,0,0,18.230597361021495,0.0,2.0
1624263537.1875,0,0,14.642604506292313,0.0,2.0
1624263537.65625,0,0,13.947544916628706,0.0,2.0
1624263538.125,0,0,16.269585929592655,0.0,2.0
1624263538.59375,0,0,13.373202225293058,0.0,2.0
1624263539.0625,0,0,0.0,0.0,2.0
1624263539.53125,0,0,18.23082793298739,0.0,2.0
1624263540.0,0,0,19.685652472341225,0.0,2.0
1624263540.46875,0,0,18.513047683356465,0.0,2.0
1624263540.9375,0,0,19.02467281531409,0.0,2.0
1624263541.40625,0,0,0.0,0.0,2.0
1624263541.875,0,0,13.400308847909082,0.0,2.0
1624263542.34375,0,0,2.8662930066682852,0.0,2.0
1624263542.8125,0,0,0.0,0.0,2.0
1624263543.28125,0,0,16.120972166146476,0.0,2.0
1624263543.75,0,0,0.0,0.0,2.0
1624263544.21875,0,0,21.207350757617537,0.0,2.0
1624263544.6875,0,0,17.09001675923301,0.0,2.0
1624263545.15625,0,0,0.0,0.0,2.0
1624263545.625,0,0,19.350414753750155,0.0,2.0
1624263546.09375,0,0,0.0,0.0,2.0
1624263546.5625,0,0,13.624432806962945,0.0,2.0
1624263547.03125,0,0,0.0,0.0,2.0
1624263547.5,0,0,11.210268435026025,0.0,2.0
1624263547.96875,0,0,14.798101651917031,0.0,2.0
1624263548.4375,0,0,0.0,0.0,2.0
1624263548.90625,0,0,13.811320570532395,0.0,2.0
1624263549.375,0,0,0.0,0.0,2.0
1624263549.84375,0,0,17.818240729100804,0.0,2.0
1624263550.3125,0,0,17.07531082849578,0.0,2.0
1624263550.78125,0,0,17.44475143586593,0.0,2.0
1624263551.25,0,0,18.630590239855977,0.0,2.0
1624263551.71875,0,0,0.0,0.0,2.0
1624263552.1875,0,0,16.36578833770853,0.0,2.0
1624263552.65625,0,0,0.0,0.0,2.0
1624263553.125,0,0,0.0,0.0,2.0
1624263553.59375,0,0,19.844650185189852,0.0,2.0
1624263554.0625,0,0,0.0,0.0,2.0
1624263554.53125,0,0,17.457773795608258,0.0,2.0
1624263555.0,0,0,11.065858626525525,0.0,2.0
1624263555.46875,0,0,0.0,0.0,2.0
1624263555.9375,0,0,24.032279503959376,0.0,2.0
1624263556.40625,0,0,-1.7528377916540472,0.0,2.0
1624263556.875,0,0,-12.045741088037994,0.0,2.0
1624263557.34375,0,0,24.77183348476856,0.0,2.0
1624263557.8125,0,0,15.053492365720851,0.0,2.0
1624263558.28125,0,0,0.0,0.0,2.0
1624263558.75,0,0,19.505054690441646,0.0,2.0
1624263559.21875,0,0,9.7719226937813,0.0,2.0
1624263559.6875,0,0,11.171442768772886,0.0,2.0
1624263560.15625,0,0,17.369741657366628,0.0,2.0
1624263560.625,0,0,0.0,0.0,2.0
1624263561.09375,0,0,6.8590604509714055,0.0,2.0
1624263561.5625,0,0,0.0,0.0,2.0
1624263562.03125,0,0,14.718377811544839,0.0,2.0
1624263562.5,0,0,0.9145873324768938,0.0,2.0
1624263562.96875,0,0,17.262998771674646,0.0,2.0
1624263563.4375,0,0,0.0,0.0,2.0
1624263563.90625,0,0,0.0,0.0,2.0
1624263564.375,0,0,20.273064953651218,0.0,2.0
1624263564.84375,0,0,0.0,0.0,2.0
1624263565.3125,0,0,19.25661680508902,0.0,2.0
1624263565.78125,0,0,0.0,0.0,2.0
1624263566.25,0,0,45.426433490008826,0.0,2.0
1624263566.71875,0,0,60.039210125151,0.0,2.0
1624263567.1875,0,0,30.883931277901333,0.0,3.0
1624263567.65625,0,0,35.084655402915615,0.0,3.0
1624263568.125,0,0,58.19404000419028,0.0,3.0
1624263568.59375,0,0,0.0,0.0,3.0
1624263569.0625,0,0,105.75450082140932,0.0,3.0
1624263569.53125,0,0,0.0,0.0,3.0
1624263570.0,0,0,232.73622805589488,0.0,3.0
1624263570.46875,0,0,18.68722482119485,0.0,3.0
1624263570.9375,0,0,0.0,0.0,3.0
1624263571.40625,0,0,66.8877027078623,0.0,3.0
1624263571.875,0,0,0.0,0.0,3.0
1624263572.34375,0,0,0.0,0.0,3.0
1624263572.8125,0,0,49.284402952750575,0.0,3.0
1624263573.28125,0,0,49.98923840301354,0.0,3.0
1624263573.75,0,0,29.028527521414393,0.0,3.0
1624263574.21875,0,0,27.603763584755942,0.0,3.0
1624263574.6875,0,0,82.04244506391004,0.0,3.0
1624263575.15625,0,0,-0.09951778297214646,0.0,3.0
1624263575.625,0,0,36.080696015392306,0.0,3.0
1624263576.09375,0,0,12.701832612304859,0.0,3.0
1624263576.5625,0,0,0.0,0.0,3.0
1624263577.03125,0,0,40.767201894118045,0.0,3.0
1624263577.5,0,0,25.386655667426854,0.0,3.0
1624263577.96875,0,0,18.1885294003699,0.0,3.0
1624263578.4375,0,0,0.0,0.0,3.0
1624263578.90625,0,0,5.59276998069719,0.0,3.0
1624263579.375,0,0,0.0,0.0,3.0
1624263579.84375,0,0,0.0,0.0,3.0
1624263580.3125,0,0,39.45968965675562,0.0,3.0
1624263580.78125,0,0,12.780664714461558,0.0,3.0
1624263581.25,0,0,0.0,0.0,3.0
1624263581.71875,0,0,24.83148518458197,0.0,3.0
1624263582.1875,0,0,10.815468273443896,0.0,3.0
1624263582.65625,0,0,5.506379426606663,0.0,3.0
1624263583.125,0,0,13.075991394460514,0.0,3.0
1624263583.59375,0,0,13.311132360277458,0.0,3.0
1624263584.0625,0,0,11.769728141324137,0.0,3.0
1624263584.53125,0,0,1.0564694143491116,0.0,3.0
1624263585.0,0,0,0.0,0.0,3.0
1624263585.46875,0,0,54.78459828319741,0.0,3.0
1624263585.9375,0,0,91.25513967553479,0.0,3.0
1624263586.40625,0,0,7.902998289110464,0.0,3.0
1624263586.875,0,0,31.348846632466078,0.0,3.0
1624263587.34375,0,0,88.89567843293278,0.0,3.0
1624263587.8125,0,0,0.0,0.0,3.0
1624263588.28125,0,0,52.59524500024977,0.0,3.0
1624263588.75,0,0,0.0,0.0,3.0
1624263589.21875,0,0,2.0246642026880997,0.0,3.0
1624263589.6875,0,0,46.27932967221463,0.0,3.0
1624263590.15625,0,0,6.675967065256804,0.0,3.0
1624263590.625,0,0,0.0,0.0,3.0
1624263591.09375,0,0,0.0,0.0,3.0
1624263591.5625,0,0,81.3157513252256,0.0,3.0
1624263592.03125,0,0,0.0,0.0,3.0
1624263592.5,0,0,0.0,0.0,3.0
1624263592.96875,0,0,95.67299062923249,0.0,3.0
1624263593.4375,0,0,0.0,0.0,3.0
1624263593.90625,0,0,14.294587553962309,0.0,3.0
1624263594.375,0,0,0.0,0.0,3.0
1624263594.84375,0,0,10.12051154789837,0.0,3.0
1624263595.3125,0,0,3.6598598623585525,0.0,3.0
1624263595.78125,0,0,79.09721578035689,0.0,3.0
1624263596.25,0,0,0.0,0.0,3.0
1624263596.71875,0,0,23.62140921689861,0.0,3.0
1624263597.1875,0,0,56.31335116365172,0.0,3.0
1624263597.65625,0,0,0.0,0.0,3.0
1624263598.125,0,0,13.66079226112301,0.0,3.0
1624263598.59375,0,0,6.392241989149346,0.0,3.0
1624263599.0625,0,0,38.59409188279506,0.0,3.0
1624263599.53125,0,0,-1.8027270145472545,0.0,3.0
1624263600.0,0,0,0.0,0.0,3.0
1624263600.46875,0,0,17.050519063784233,0.0,3.0
1624263600.9375,0,0,54.01886194626254,0.0,3.0
1624263601.40625,0,0,0.0,0.0,3.0
1624263601.875,0,0,8.543605027168558,0.0,3.0
1624263602.34375,0,0,12.099658180571586,0.0,3.0
1624263602.8125,0,0,61.17739866820691,0.0,3.0
1624263603.28125,0,0,0.0,0.0,3.0
1624263603.75,0,0,9.32191098098142,0.0,3.0
1624263604.21875,0,0,13.093238863557758,0.0,3.0
1624263604.6875,0,0,47.835436066255625,0.0,3.0
1624263605.15625,0,0,1.2886349512717086,0.0,3.0
1624263605.625,0,0,0.0,0.0,3.0
1624263606.09375,0,0,0.0,0.0,3.0
1624263606.5625,0,0,107.29469543844434,0.0,3.0
1624263607.03125,0,0,30.928232526802454,0.0,3.0
1624263607.5,0,0,11.306385528679376,0.0,3.0
1624263607.96875,0,0,8.785159998659177,0.0,3.0
1624263608.4375,0,0,45.01312103763634,0.0,3.0
1624263608.90625,0,0,0.0,0.0,3.0
1624263609.375,0,0,7.359315328748911,0.0,3.0
1624263609.84375,0,0,4.255070929999868,0.0,3.0
1624263610.3125,0,0,46.7522235813032,0.0,3.0
1624263610.78125,0,0,0.0,0.0,3.0
1624263611.25,0,0,11.149598957668202,0.0,3.0
1624263611.71875,0,0,6.538107852044533,0.0,3.0
1624263612.1875,0,0,64.93983823400819,0.0,3.0
1624263612.65625,0,0,6.167661521487096,0.0,3.0
1624263613.125,0,0,0.0,0.0,3.0
1624263613.59375,0,0,14.07917805990973,0.0,3.0
1624263614.0625,0,0,-2.378110132420601,0.0,3.0
1624263614.53125,0,0,3.3094003182515617,0.0,3.0
1624263615.0,0,0,11.519104423895957,0.0,3.0
1624263615.46875,0,0,59.10364868589834,0.0,3.0
1624263615.9375,0,0,0.0,0.0,3.0
1624263616.40625,0,0,12.247648252491217,0.0,3.0
1624263616.875,0,0,12.722426186986986,0.0,3.0
1624263617.34375,0,0,60.33480261576346,0.0,3.0
1624263617.8125,0,0,0.0,0.0,3.0
1624263618.28125,0,0,8.181271054475747,0.0,3.0
1624263618.75,0,0,13.767232303597838,0.0,3.0
1624263619.21875,0,0,52.246268008279266,0.0,3.0
1624263619.6875,0,0,0.0,0.0,3.0
1624263620.15625,0,0,3.2321232414402843,0.0,3.0
1624263620.625,0,0,11.786524063456435,0.0,3.0
1624263621.09375,0,0,0.0,0.0,3.0
1624263621.5625,0,0,10.596868315385318,0.0,3.0
1624263622.03125,0,0,0.0,0.0,3.0
1624263622.5,0,0,9.437581353253467,0.0,3.0
1624263622.96875,0,0,7.512627937089258,0.0,3.0
1624263623.4375,0,0,6.974452117110295,0.0,3.0
1624263623.90625,0,0,11.350126839497284,0.0,3.0
1624263624.375,0,0,0.0,0.0,3.0
1624263624.84375,0,0,11.2816122877564,0.0,3.0
1624263625.3125,0,0,0.0,0.0,3.0
1624263625.78125,0,0,0.0,0.0,3.0
1624263626.25,0,0,10.599392939631397,0.0,3.0
1624263626.71875,0,0,0.0,0.0,3.0
1624263627.1875,0,0,11.886212231087969,0.0,3.0
1624263627.65625,0,0,12.701152701991447,0.0,3.0
1624263628.125,0,0,0.0,0.0,3.0
1624263628.59375,0,0,12.331891461584618,0.0,3.0
1624263629.0625,0,0,0.0,0.0,3.0
1624263629.53125,0,0,10.154314950130239,0.0,3.0
1624263630.0,0,0,0.0,0.0,3.0
1624263630.46875,0,0,0.0,0.0,3.0
1624263630.9375,0,0,10.928385763413843,0.0,3.0
1624263631.40625,0,0,0.0,0.0,3.0
1624263631.875,0,0,5.84074128077392,0.0,3.0
1624263632.34375,0,0,0.0,0.0,3.0
1624263632.8125,0,0,0.0,0.0,3.0
1624263633.28125,0,0,10.683971492703886,0.0,3.0
1624263633.75,0,0,0.0,0.0,3.0
1624263634.21875,0,0,-0.19595140597713304,0.0,3.0
1624263634.6875,0,0,0.0,0.0,3.0
1624263635.15625,0,0,103.84998243360168,0.0,3.0
1624263635.625,0,0,0.0,0.0,3.0
1624263636.09375,0,0,65.66417785510217,0.0,3.0
1624263636.5625,0,0,0.0,0.0,3.0
1624263637.03125,0,0,7.564275416580465,0.0,3.0
1624263637.5,0,0,0.0,0.0,3.0
1624263637.96875,0,0,45.569125717984875,0.0,3.0
1624263638.4375,0,0,2.9703988133023644,0.0,3.0
1624263638.90625,0,0,0.0,0.0,3.0
1624263639.375,0,0,8.23254483306456,0.0,3.0
1624263639.84375,0,0,27.915024004896697,0.0,3.0
1624263640.3125,0,0,0.0,0.0,3.0
1624263640.78125,0,0,33.48796965290198,0.0,3.0
1624263641.25,0,0,24.299567031524536,0.0,3.0
1624263641.71875,0,0,23.007307628345277,0.0,3.0
1624263642.1875,0,0,-3.644908946182274,0.0,3.0
1624263642.65625,0,0,0.0,0.0,3.0
1624263643.125,0,0,6.894330943724071,0.0,3.0
1624263643.59375,0,0,47.61608297980474,0.0,3.0
1624263644.0625,0,0,0.0,0.0,3.0
1624263644.53125,0,0,3.0804370928298863,0.0,3.0
1624263645.0,0,0,17.297546184443533,0.0,3.0
1624263645.46875,0,0,18.869104775576215,0.0,3.0
1624263645.9375,0,0,-6.877955648381153,0.0,3.0
1624263646.40625,0,0,0.0,0.0,3.0
1624263646.875,0,0,74.62945346757282,0.0,3.0
1624263647.34375,0,0,0.0,0.0,3.0
1624263647.8125,0,0,10.596358370438852,0.0,3.0
1624263648.28125,0,0,0.0,0.0,3.0
1624263648.75,0,0,124.16392915563256,0.0,3.0
1624263649.21875,0,0,0.0,0.0,3.0
1624263649.6875,0,0,31.06320150362557,0.0,3.0
1624263650.15625,0,0,10.932258550623597,0.0,3.0
1624263650.625,0,0,83.70366348895378,0.0,3.0
1624263651.09375,0,0,-6.147219871120834,0.0,3.0
1624263651.5625,0,0,12.365480781877277,0.0,3.0
1624263652.03125,0,0,7.522881701368565,0.0,3.0
1624263652.5,0,0,96.44197530094442,0.0,3.0
1624263652.96875,0,0,0.0,0.0,3.0
1624263653.4375,0,0,22.80737292374053,0.0,3.0
1624263653.90625,0,0,0.0,0.0,3.0
1624263654.375,0,0,62.63322313451078,0.0,3.0
1624263654.84375,0,0,16.164387740293627,0.0,3.0
1624263655.3125,0,0,16.148047979917468,0.0,3.0
1624263655.78125,0,0,0.0,0.0,3.0
1624263656.25,0,0,9.205686560405093,0.0,3.0
1624263656.71875,0,0,0.0,0.0,3.0
1624263657.1875,0,0,4.571757980657091,0.0,3.0
1624263657.65625,0,0,18.5847799944804,0.0,3.0
1624263658.125,0,0,52.153182721635645,0.0,3.0
1624263658.59375,0,0,-8.541420396933264,0.0,3.0
1624263659.0625,0,0,12.943782966636597,0.0,3.0
1624263659.53125,0,0,0.0,0.0,3.0
1624263660.0,0,0,11.219494588642146,0.0,3.0
1624263660.46875,0,0,38.32781850927994,0.0,3.0
1624263660.9375,0,0,-2.6538280760881916,0.0,3.0
1624263661.40625,0,0,12.500407149081985,0.0,3.0
1624263661.875,0,0,-11.438394731793409,0.0,3.0
1624263662.34375,0,0,49.624367538642424,0.0,3.0
1624263662.8125,0,0,6.878457950208939,0.0,3.0
1624263663.28125,0,0,0.0,0.0,3.0
1624263663.75,0,0,12.647625769135537,0.0,3.0
1624263664.21875,0,0,47.0189791245614,0.0,3.0
1624263664.6875,0,0,-5.654617272376514,0.0,3.0
1624263665.15625,0,0,10.247902194231992,0.0,3.0
1624263665.625,0,0,0.0,0.0,3.0
1624263666.09375,0,0,24.24285339041978,0.0,3.0
1624263666.5625,0,0,0.0,0.0,3.0
1624263667.03125,0,0,3.5973961248830193,0.0,3.0
1624263667.5,0,0,8.725592653961955,0.0,3.0
1624263667.96875,0,0,30.174821464733913,0.0,3.0
1624263668.4375,0,0,0.0,0.0,3.0
1624263668.90625,0,0,12.43320238842215,0.0,3.0
1624263669.375,0,0,0.0,0.0,3.0
1624263669.84375,0,0,28.402787474235215,0.0,3.0
1624263670.3125,0,0,0.0,0.0,3.0
1624263670.78125,0,0,5.464947413850742,0.0,3.0
1624263671.25,0,0,11.628426083066444,0.0,3.0
1624263671.71875,0,0,5.274402687246245,0.0,3.0
1624263672.1875,0,0,38.685446128065436,0.0,3.0
1624263672.65625,0,0,11.435970895524559,0.0,3.0
1624263673.125,0,0,0.0,0.0,3.0
1624263673.59375,0,0,15.651394098370785,0.0,3.0
1624263674.0625,0,0,31.62757055913055,0.0,3.0
1624263674.53125,0,0,1.7574589455624459,0.0,3.0
1624263675.0,0,0,0.0,0.0,3.0
1624263675.46875,0,0,13.745113127977918,0.0,3.0
1624263675.9375,0,0,21.100118121349862,0.0,3.0
1624263676.40625,0,0,0.0,0.0,3.0
1624263676.875,0,0,13.224542104036946,0.0,3.0
1624263677.34375,0,0,8.547262328362729,0.0,3.0
1624263677.8125,0,0,12.080723041093707,0.0,3.0
1624263678.28125,0,0,9.565055023647554,0.0,3.0
1624263678.75,0,0,0.0,0.0,3.0
1624263679.21875,0,0,14.19313597780587,0.0,3.0
1624263679.6875,0,0,12.715166062838247,0.0,3.0
1624263680.15625,0,0,0.0,0.0,3.0
1624263680.625,0,0,10.723922458059471,0.0,3.0
1624263681.09375,0,0,6.238564807500147,0.0,3.0
1624263681.5625,0,0,5.383043901937019,0.0,3.0
1624263682.03125,0,0,12.06481953044292,0.0,3.0
1624263682.5,0,0,0.0,0.0,3.0
1624263682.96875,0,0,8.568242939618605,0.0,3.0
1624263683.4375,0,0,11.197085214498621,0.0,3.0
1624263683.90625,0,0,0.0,0.0,3.0
1624263684.375,0,0,9.152368369992272,0.0,3.0
1624263684.84375,0,0,12.892942268001388,0.0,3.0
1624263685.3125,0,0,0.0,0.0,3.0
1624263685.78125,0,0,13.716930611972641,0.0,3.0
1624263686.25,0,0,0.0,0.0,3.0
1624263686.71875,0,0,0.0,0.0,3.0
1624263687.1875,0,0,10.376561265480163,0.0,3.0
1624263687.65625,0,0,0.0,0.0,3.0
1624263688.125,0,0,3.7303572930026014,0.0,3.0
1624263688.59375,0,0,0.0,0.0,3.0
1624263689.0625,0,0,0.0,0.0,3.0
1624263689.53125,0,0,0.0,0.0,3.0
1624263690.0,0,0,75.39482951414269,0.0,3.0
1624263690.46875,0,0,45.967202830666686,0.0,3.0
1624263690.9375,0,0,1.922908222181906,0.0,3.0
1624263691.40625,0,0,2.0398166386117618,0.0,3.0
1624263691.875,0,0,3.718950575054533,0.0,3.0
1624263692.34375,0,0,31.075868921068214,0.0,3.0
1624263692.8125,0,0,23.765608170004512,0.0,3.0
1624263693.28125,0,0,-2.4116421677495077,0.0,3.0
1624263693.75,0,0,9.984919527878215,0.0,3.0
1624263694.21875,0,0,28.712667099591172,0.0,3.0
1624263694.6875,0,0,41.50992120115092,0.0,3.0
1624263695.15625,0,0,-3.6121719210398537,0.0,3.0
1624263695.625,0,0,16.8970954459646,0.0,3.0
1624263696.09375,0,0,0.0,0.0,3.0
1624263696.5625,0,0,0.0,0.0,3.0
1624263697.03125,0,0,3.579225527796388,0.0,3.0
1624263697.5,0,0,23.684535262083404,0.0,3.0
1624263697.96875,0,0,29.589337953604122,0.0,3.0
1624263698.4375,0,0,-8.897920065790728,0.0,3.0
1624263698.90625,0,0,19.29282859369204,0.0,3.0
1624263699.375,0,0,15.126568260491899,0.0,3.0
1624263699.84375,0,0,10.565872238667872,0.0,3.0
1624263700.3125,0,0,51.00549940881358,0.0,3.0
1624263700.78125,0,0,-1.6826410590609446,0.0,3.0
1624263701.25,0,0,-8.815821445560054,0.0,3.0
1624263701.71875,0,0,0.0,0.0,3.0
1624263702.1875,0,0,154.18078402961746,0.0,3.0
1624263702.65625,0,0,42.57236424903961,0.0,3.0
1624263703.125,0,0,0.0,0.0,3.0
1624263703.59375,0,0,24.442864070172117,0.0,3.0
1624263704.0625,0,0,10.747575327779337,0.0,3.0
1624263704.53125,0,0,-0.26759695886279655,0.0,3.0
1624263705.0,0,0,16.583030207567692,0.0,3.0
1624263705.46875,0,0,14.685598850785436,0.0,3.0
1624263705.9375,0,0,41.49769710839044,0.0,3.0
1624263706.40625,0,0,0.0,0.0,3.0
1624263706.875,0,0,12.085276996051709,0.0,3.0
1624263707.34375,0,0,45.44728425912861,0.0,3.0
1624263707.8125,0,0,11.180640044553165,0.0,3.0
1624263708.28125,0,0,10.475047481289334,0.0,3.0
1624263708.75,0,0,0.0,0.0,3.0
1624263709.21875,0,0,18.022230621378792,0.0,3.0
1624263709.6875,0,0,26.630380236993346,0.0,3.0
1624263710.15625,0,0,2.7488037262974565,0.0,3.0
1624263710.625,0,0,15.96757231663209,0.0,3.0
1624263711.09375,0,0,-3.1178372443127635,0.0,3.0
1624263711.5625,0,0,34.3533168894414,0.0,3.0
1624263712.03125,0,0,12.370805651419934,0.0,3.0
1624263712.5,0,0,12.496152560925562,0.0,3.0
1624263712.96875,0,0,36.19977378084123,0.0,3.0
1624263713.4375,0,0,16.381705042794028,0.0,3.0
1624263713.90625,0,0,10.379367366683036,0.0,3.0
1624263714.375,0,0,0.0,0.0,3.0
1624263714.84375,0,0,39.798726281065605,0.0,3.0
1624263715.3125,0,0,23.886754529078967,0.0,3.0
1624263715.78125,0,0,18.98832575971766,0.0,3.0
1624263716.25,0,0,10.62881947113154,0.0,3.0
1624263716.71875,0,0,0.0,0.0,3.0
1624263717.1875,0,0,0.0,0.0,3.0
1624263717.65625,0,0,30.074586561060052,0.0,3.0
1624263718.125,0,0,0.0,0.0,3.0
1624263718.59375,0,0,40.05701550273129,0.0,3.0
1624263719.0625,0,0,-16.264408503369253,0.0,3.0
1624263719.53125,0,0,15.18662542222328,0.0,3.0
1624263720.0,0,0,0.0,0.0,3.0
1624263720.46875,0,0,0.0,0.0,3.0
1624263720.9375,0,0,73.17889075239616,0.0,3.0
1624263721.40625,0,0,11.340075523994663,0.0,3.0
1624263721.875,0,0,29.4059477314883,0.0,3.0
1624263722.34375,0,0,0.0,0.0,3.0
1624263722.8125,0,0,35.6671764570024,0.0,3.0
1624263723.28125,0,0,7.957013149325019,0.0,3.0
1624263723.75,0,0,5.693769451428229,0.0,3.0
1624263724.21875,0,0,0.0,0.0,3.0
1624263724.6875,0,0,57.30988499138835,0.0,3.0
1624263725.15625,0,0,16.542901065596503,0.0,3.0
1624263725.625,0,0,8.876758256735588,0.0,3.0
1624263726.09375,0,0,5.894772365929751,0.0,3.0
1624263726.5625,0,0,95.93084041381549,0.0,3.0
1624263727.03125,0,0,38.90357491324552,0.0,3.0
1624263727.5,0,0,0.0,0.0,3.0
1624263727.96875,0,0,16.924612587025855,0.0,3.0
1624263728.4375,0,0,27.013001009385732,0.0,3.0
1624263728.90625,0,0,13.37956935578023,0.0,3.0
1624263729.375,0,0,0.0,0.0,3.0
1624263729.84375,0,0,18.399141540678176,0.0,3.0
1624263730.3125,0,0,0.0,0.0,3.0
1624263730.78125,0,0,0.0,0.0,3.0
1624263731.25,0,0,15.616000585147955,0.0,3.0
1624263731.71875,0,0,0.0,0.0,3.0
1624263732.1875,0,0,28.848804357204003,0.0,3.0
1624263732.65625,0,0,11.268703006115958,0.0,3.0
1624263733.125,0,0,10.189012006155966,0.0,3.0
1624263733.59375,0,0,15.564088795904219,0.0,3.0
1624263734.0625,0,0,0.0,0.0,3.0
1624263734.53125,0,0,10.791533494052313,0.0,3.0
1624263735.0,0,0,12.74778035309989,0.0,3.0
1624263735.46875,0,0,0.0,0.0,3.0
1624263735.9375,0,0,16.601218069627183,0.0,3.0
1624263736.40625,0,0,0.0,0.0,3.0
1624263736.875,0,0,14.198927084695386,0.0,3.0
1624263737.34375,0,0,11.100237218176668,0.0,3.0
1624263737.8125,0,0,11.825726661357642,0.0,3.0
1624263738.28125,0,0,12.107099187900102,0.0,3.0
1624263738.75,0,0,0.0,0.0,3.0
1624263739.21875,0,0,11.408241303568955,0.0,3.0
1624263739.6875,0,0,14.46207357732799,0.0,3.0
1624263740.15625,0,0,14.741455382604444,0.0,3.0
1624263740.625,0,0,12.947500928863656,0.0,3.0
1624263741.09375,0,0,0.0,0.0,3.0
1624263741.5625,0,0,0.0,0.0,3.0
1624263742.03125,0,0,23.07899294600575,0.0,3.0
1624263742.5,0,0,0.0,0.0,3.0
1624263742.96875,0,0,34.06116254982536,0.0,3.0
1624263743.4375,0,0,0.0,0.0,3.0
1624263743.90625,0,0,95.22404027508387,0.0,3.0
1624263744.375,0,0,0.0,0.0,3.0
1624263744.84375,0,0,42.45339737136331,0.0,3.0
1624263745.3125,0,0,24.8326528842948,0.0,3.0
1624263745.78125,0,0,0.0,0.0,3.0
1624263746.25,0,0,18.584724437101897,0.0,3.0
1624263746.71875,0,0,0.0,0.0,3.0
1624263747.1875,0,0,18.884882272646077,0.0,3.0
1624263747.65625,0,0,12.069169068376254,0.0,3.0
1624263748.125,0,0,0.0,0.0,3.0
1624263748.59375,0,0,17.370857615503997,0.0,3.0
1624263749.0625,0,0,0.0,0.0,3.0
1624263749.53125,0,0,32.50253755518286,0.0,3.0
1624263750.0,0,0,7.616771896418032,0.0,3.0
1624263750.46875,0,0,2.5029690320647306,0.0,3.0
1624263750.9375,0,0,15.100701092195212,0.0,3.0
1624263751.40625,0,0,30.031308776898744,0.0,3.0
1624263751.875,0,0,45.15229805044658,0.0,3.0
1624263752.34375,0,0,27.91192112475883,0.0,3.0
1624263752.8125,0,0,39.5477040821955,0.0,3.0
1624263753.28125,0,0,0.0,0.0,3.0
1624263753.75,0,0,17.964023958165676,0.0,3.0
1624263754.21875,0,0,0.0,0.0,3.0
1624263754.6875,0,0,11.340294060429564,0.0,3.0
1624263755.15625,0,0,52.15567582024672,0.0,3.0
1624263755.625,0,0,0.0,0.0,3.0
1624263756.09375,0,0,56.04863822698808,0.0,3.0
1624263756.5625,0,0,29.314631067469477,0.0,3.0
1624263757.03125,0,0,1.8549293924605734,0.0,3.0
1624263757.5,0,0,7.670716656548684,0.0,3.0
1624263757.96875,0,0,-10.897311075200664,0.0,3.0
1624263758.4375,0,0,81.71453079469745,0.0,3.0
1624263758.90625,0,0,6.073885835192051,0.0,3.0
1624263759.375,0,0,7.790595343572995,0.0,3.0
