timestamp,mean_pulse_rate,pulse_rate_std,mean_pulse_amplitude,pulse_amplitude_std,block
1624262446.0625,0,0,48.66882759864286,0.0,1.0
1624262446.53125,0,0,4.001744854345753,0.0,1.0
1624262447.0,0,0,46.18339951496278,0.0,1.0
1624262447.46875,0,0,116.08964640271681,0.0,1.0
1624262447.9375,0,0,53.20224714352493,0.0,1.0
1624262448.40625,0,0,-136.5507319101047,0.0,1.0
1624262448.875,0,0,0.0,0.0,1.0
1624262449.34375,0,0,551.3944419039631,0.0,1.0
1624262449.8125,0,0,-1.357851370082486,0.0,1.0
1624262450.28125,0,0,131.79667366961584,0.0,1.0
1624262450.75,0,0,0.0,0.0,1.0
1624262451.21875,0,0,42.05341821669555,0.0,1.0
1624262451.6875,0,0,326.53436061308633,0.0,1.0
1624262452.15625,0,0,88.02715853658465,0.0,1.0
1624262452.625,0,0,188.0860949324246,0.0,1.0
1624262453.09375,0,0,149.12503835126705,0.0,1.0
1624262453.5625,0,0,722.506861573919,0.0,1.0
1624262454.03125,0,0,71.2329535800864,0.0,1.0
1624262454.5,0,0,151.06048323559352,0.0,1.0
1624262454.96875,0,0,0.0,0.0,1.0
1624262455.4375,0,0,102.89168743391907,0.0,1.0
1624262455.90625,0,0,-72.51741638308468,0.0,1.0
1624262456.375,0,0,142.54387894850225,0.0,1.0
1624262456.84375,0,0,72.06929655112023,0.0,1.0
1624262457.3125,0,0,54.281824540395505,0.0,1.0
1624262457.78125,0,0,94.8319286933683,0.0,1.0
1624262458.25,0,0,72.36497840654562,0.0,1.0
1624262458.71875,0,0,0.0,0.0,1.0
1624262459.1875,0,0,64.27097149949219,0.0,1.0
1624262459.65625,0,0,27.216015540152757,0.0,1.0
1624262460.125,0,0,0.0,0.0,1.0
1624262460.59375,0,0,307.0629395548238,0.0,1.0
1624262461.0625,0,0,0.0,0.0,1.0
1624262461.53125,0,0,58.386847130386215,0.0,1.0
1624262462.0,0,0,103.61232294499321,0.0,1.0
1624262462.46875,0,0,-9.453414521360003,0.0,1.0
1624262462.9375,0,0,224.39863656318892,0.0,1.0
1624262463.40625,0,0,0.0,0.0,1.0
1624262463.875,0,0,120.42832088775948,0.0,1.0
1624262464.34375,0,0,0.0,0.0,1.0
1624262464.8125,0,0,521.0147118279873,0.0,1.0
1624262465.28125,0,0,0.0,0.0,1.0
1624262465.75,0,0,121.08952595727325,0.0,1.0
1624262466.21875,0,0,92.91425306756223,0.0,1.0
1624262466.6875,0,0,293.8767011126417,0.0,1.0
1624262467.15625,0,0,5.071896989340241,0.0,1.0
1624262467.625,0,0,121.4504201859344,0.0,1.0
1624262468.09375,0,0,397.15339845251384,0.0,1.0
1624262468.5625,0,0,-35.02013823219454,0.0,1.0
1624262469.03125,0,0,57.9202671875675,0.0,1.0
1624262469.5,0,0,90.85435041707193,0.0,1.0
1624262469.96875,0,0,0.0,0.0,1.0
1624262470.4375,0,0,137.83085709558648,0.0,1.0
1624262470.90625,0,0,0.0,0.0,1.0
1624262471.375,0,0,0.0,0.0,1.0
1624262471.84375,0,0,863.710253813642,0.0,1.0
1624262472.3125,0,0,0.0,0.0,1.0
1624262472.78125,0,0,56.86032404013205,0.0,1.0
1624262473.25,0,0,234.62363532761157,0.0,1.0
1624262473.71875,0,0,70.92391955894783,0.0,1.0
1624262474.1875,0,0,237.3032890888626,0.0,1.0
1624262474.65625,0,0,0.0,0.0,1.0
1624262475.125,0,0,188.31033709697797,0.0,1.0
1624262475.59375,0,0,133.65991897990037,0.0,1.0
1624262476.0625,0,0,0.0,0.0,1.0
1624262476.53125,0,0,135.58163396632335,0.0,1.0
1624262477.0,0,0,479.3178116136992,0.0,1.0
1624262477.46875,0,0,0.0,0.0,1.0
1624262477.9375,0,0,221.0938723458565,0.0,1.0
1624262478.40625,0,0,143.9903081189234,0.0,1.0
1624262478.875,0,0,208.34240264007713,0.0,1.0
1624262479.34375,0,0,0.0,0.0,1.0
1624262479.8125,0,0,0.0,0.0,1.0
1624262480.28125,0,0,169.087358474612,0.0,1.0
1624262480.75,0,0,261.13178370919496,0.0,1.0
1624262481.21875,0,0,0.0,0.0,1.0
1624262481.6875,0,0,0.0,0.0,1.0
1624262482.15625,0,0,125.51689866697642,0.0,1.0
1624262482.625,0,0,220.97111012128966,0.0,1.0
1624262483.09375,0,0,0.0,0.0,1.0
1624262483.5625,0,0,0.0,0.0,1.0
1624262484.03125,0,0,-5.581293608592993,0.0,1.0
1624262484.5,0,0,408.1562346152627,0.0,1.0
1624262484.96875,0,0,0.0,0.0,1.0
1624262485.4375,0,0,202.68878609569765,0.0,1.0
1624262485.90625,0,0,111.6141924602385,0.0,1.0
1624262486.375,0,0,163.08269857266467,0.0,1.0
1624262486.84375,0,0,142.00815049235064,0.0,1.0
1624262487.3125,0,0,94.11162756956995,0.0,1.0
1624262487.78125,0,0,144.7904181603279,0.0,1.0
1624262488.25,0,0,0.0,0.0,1.0
1624262488.71875,0,0,211.2045126042528,0.0,1.0
1624262489.1875,0,0,119.46512883636463,0.0,1.0
1624262489.65625,0,0,85.76680158050519,0.0,1.0
1624262490.125,0,0,0.0,0.0,1.0
1624262490.59375,0,0,329.2580479238029,0.0,1.0
1624262491.0625,0,0,112.52977423661602,0.0,1.0
1624262491.53125,0,0,135.9384305092415,0.0,1.0
1624262492.0,0,0,233.51434164318047,0.0,1.0
1624262492.46875,0,0,280.83235922708525,0.0,1.0
1624262492.9375,0,0,0.0,0.0,1.0
1624262493.40625,0,0,393.53451856185404,0.0,1.0
1624262493.875,0,0,326.72118652886314,0.0,1.0
1624262494.34375,0,0,0.0,0.0,1.0
1624262494.8125,0,0,190.16058078265914,0.0,1.0
1624262495.28125,0,0,247.96998080651127,0.0,1.0
1624262495.75,0,0,0.0,0.0,1.0
1624262496.21875,0,0,0.0,0.0,1.0
1624262496.6875,0,0,0.0,0.0,1.0
1624262497.15625,0,0,427.85558629568857,0.0,1.0
1624262497.625,0,0,-56.878953688054466,0.0,1.0
1624262498.09375,0,0,0.0,0.0,1.0
1624262498.5625,0,0,479.3985202330061,0.0,1.0
1624262499.03125,0,0,4.364376178553344,0.0,1.0
1624262499.5,0,0,-129.49331354030906,0.0,1.0
1624262499.96875,0,0,181.39918938605533,0.0,1.0
1624262500.4375,0,0,202.64092299194346,0.0,1.0
1624262500.90625,0,0,97.07353571633122,0.0,1.0
1624262501.375,0,0,0.0,0.0,1.0
1624262501.84375,0,0,351.4368033493901,0.0,1.0
1624262502.3125,0,0,265.45891941058784,0.0,1.0
1624262502.78125,0,0,282.288016491365,0.0,1.0
1624262503.25,0,0,214.82072134134683,0.0,1.0
1624262503.71875,0,0,0.0,0.0,1.0
1624262504.1875,0,0,243.9897778149153,0.0,1.0
1624262504.65625,0,0,358.9112718651592,0.0,1.0
1624262505.125,0,0,0.0,0.0,1.0
1624262505.59375,0,0,367.5113615798567,0.0,1.0
1624262506.0625,0,0,237.46812969944534,0.0,1.0
1624262506.53125,0,0,482.9817638071513,0.0,1.0
1624262507.0,0,0,0.0,0.0,1.0
1624262507.46875,0,0,-5.935787752819791,0.0,1.0
1624262507.9375,0,0,392.34410726694307,0.0,1.0
1624262508.40625,0,0,0.0,0.0,1.0
1624262508.875,0,0,-56.830859257794344,0.0,1.0
1624262509.34375,0,0,175.00269207285123,0.0,1.0
1624262509.8125,0,0,136.78278475566592,0.0,1.0
1624262510.28125,0,0,219.9501735609787,0.0,1.0
1624262510.75,0,0,325.76394338513774,0.0,1.0
1624262511.21875,0,0,0.0,0.0,1.0
1624262511.6875,0,0,147.15070169602495,0.0,1.0
1624262512.15625,0,0,209.7142468040843,0.0,1.0
1624262512.625,0,0,112.09036763309805,0.0,1.0
1624262513.09375,0,0,132.66919112090508,0.0,1.0
1624262513.5625,0,0,83.70542065522054,0.0,1.0
1624262514.03125,0,0,0.0,0.0,1.0
1624262514.5,0,0,0.0,0.0,1.0
1624262514.96875,0,0,835.4776684056038,0.0,1.0
1624262515.4375,0,0,417.3497297168252,0.0,1.0
1624262515.90625,0,0,0.0,0.0,1.0
1624262516.375,0,0,291.8877406859811,0.0,1.0
1624262516.84375,0,0,157.19414509847672,0.0,1.0
1624262517.3125,0,0,416.10329675182317,0.0,1.0
1624262517.78125,0,0,0.0,0.0,1.0
1624262518.25,0,0,-26.960703753459374,0.0,1.0
1624262518.71875,0,0,112.66801080308534,0.0,1.0
1624262519.1875,0,0,738.1262556287445,0.0,1.0
1624262519.65625,0,0,0.0,0.0,1.0
1624262520.125,0,0,128.98988244526362,0.0,1.0
1624262520.59375,0,0,22.572397386575567,0.0,1.0
1624262521.0625,0,0,162.13394391770737,0.0,1.0
1624262521.53125,0,0,4.747107448296595,0.0,1.0
1624262522.0,0,0,95.19172572173841,0.0,1.0
1624262522.46875,0,0,96.1544097294561,0.0,1.0
1624262522.9375,0,0,67.95957065755212,0.0,1.0
1624262523.40625,0,0,-48.19838724098541,0.0,1.0
1624262523.875,0,0,81.36827153404934,0.0,1.0
1624262524.34375,0,0,49.640775312225834,0.0,1.0
1624262524.8125,0,0,0.0,0.0,1.0
1624262525.28125,0,0,45.94301222168316,0.0,1.0
1624262525.75,0,0,8.568139286322928,0.0,1.0
1624262526.21875,0,0,0.0,0.0,1.0
1624262526.6875,0,0,2.12223162029929,0.0,1.0
1624262527.15625,0,0,9.54424152057641,0.0,1.0
1624262527.625,0,0,5.459433372509807,0.0,1.0
1624262528.09375,0,0,0.0,0.0,1.0
1624262528.5625,0,0,6.508334525446081,0.0,1.0
1624262529.03125,0,0,5.842074436019341,0.0,1.0
1624262529.5,0,0,0.0,0.0,1.0
1624262529.96875,0,0,8.496837371831255,0.0,1.0
1624262530.4375,0,0,7.340042522537528,0.0,1.0
1624262530.90625,0,0,7.229350231983251,0.0,1.0
1624262531.375,0,0,0.0,0.0,1.0
1624262531.84375,0,0,8.220971396988022,0.0,1.0
1624262532.3125,0,0,8.466968516384615,0.0,1.0
1624262532.78125,0,0,0.0,0.0,1.0
1624262533.25,0,0,9.503350317675519,0.0,1.0
1624262533.71875,0,0,9.038230766600359,0.0,1.0
1624262534.1875,0,0,0.0,0.0,1.0
1624262534.65625,0,0,9.956625411573592,0.0,1.0
1624262535.125,0,0,9.996363559377945,0.0,1.0
1624262535.59375,0,0,0.0,0.0,1.0
1624262536.0625,0,0,9.863040382525856,0.0,1.0
1624262536.53125,0,0,11.666649218672566,0.0,1.0
1624262537.0,0,0,0.0,0.0,1.0
1624262537.46875,0,0,12.046717580741179,0.0,1.0
1624262537.9375,0,0,12.59994224167836,0.0,1.0
1624262538.40625,0,0,0.0,0.0,1.0
1624262538.875,0,0,10.189284186603263,0.0,1.0
1624262539.34375,0,0,11.984380222362626,0.0,1.0
1624262539.8125,0,0,0.0,0.0,1.0
1624262540.28125,0,0,13.9193575978914,0.0,1.0
1624262540.75,0,0,14.030664322613987,0.0,1.0
1624262541.21875,0,0,0.0,0.0,1.0
1624262541.6875,0,0,12.486089184841397,0.0,1.0
1624262542.15625,0,0,0.0,0.0,1.0
1624262542.625,0,0,16.181582061796362,0.0,1.0
1624262543.09375,0,0,7.575188530232286,0.0,1.0
1624262543.5625,0,0,4.213355844356426,0.0,1.0
1624262544.03125,0,0,12.853857220905828,0.0,1.0
1624262544.5,0,0,10.004515002406354,0.0,1.0
1624262544.96875,0,0,0.0,0.0,1.0
1624262545.4375,0,0,10.312887707899007,0.0,1.0
1624262545.90625,0,0,12.966137997799859,0.0,1.0
1624262546.375,0,0,0.0,0.0,1.0
1624262546.84375,0,0,23.065747767882698,0.0,1.0
1624262547.3125,0,0,24.511826041769684,0.0,1.0
1624262547.78125,0,0,6.879669230693794,0.0,1.0
1624262548.25,0,0,0.0,0.0,1.0
1624262548.71875,0,0,11.133938818832606,0.0,1.0
1624262549.1875,0,0,11.439513080319541,0.0,1.0
1624262549.65625,0,0,0.0,0.0,1.0
1624262550.125,0,0,10.993015953521597,0.0,1.0
1624262550.59375,0,0,11.68152566059252,0.0,1.0
1624262551.0625,0,0,0.0,0.0,1.0
1624262551.53125,0,0,10.61245057215537,0.0,1.0
1624262552.0,0,0,9.592773982510211,0.0,1.0
1624262552.46875,0,0,0.0,0.0,1.0
1624262552.9375,0,0,13.172116527984816,0.0,1.0
1624262553.40625,0,0,13.589122269032433,0.0,1.0
1624262553.875,0,0,0.0,0.0,1.0
1624262554.34375,0,0,10.308958446652445,0.0,1.0
1624262554.8125,0,0,9.445782595838327,0.0,1.0
1624262555.28125,0,0,0.0,0.0,1.0
1624262555.75,0,0,11.211425892855427,0.0,1.0
1624262556.21875,0,0,8.982359044224937,0.0,1.0
1624262556.6875,0,0,5.571007540810906,0.0,1.0
1624262557.15625,0,0,12.710875413699034,0.0,1.0
1624262557.625,0,0,10.44251310119194,0.0,1.0
1624262558.09375,0,0,0.0,0.0,1.0
1624262558.5625,0,0,11.779362002832281,0.0,1.0
1624262559.03125,0,0,12.469737237510774,0.0,1.0
1624262559.5,0,0,12.091178617287696,0.0,1.0
1624262559.96875,0,0,9.608760111202635,0.0,1.0
1624262560.4375,0,0,0.0,0.0,1.0
1624262560.90625,0,0,6.766590042434188,0.0,1.0
1624262561.375,0,0,10.537808833960762,0.0,1.0
1624262561.84375,0,0,0.0,0.0,1.0
1624262562.3125,0,0,9.723364416138015,0.0,1.0
1624262562.78125,0,0,10.275561097153025,0.0,1.0
1624262563.25,0,0,0.0,0.0,1.0
1624262563.71875,0,0,8.823878341386383,0.0,1.0
1624262564.1875,0,0,0.0,0.0,1.0
1624262564.65625,0,0,10.496154819554656,0.0,1.0
1624262565.125,0,0,9.063295641147207,0.0,1.0
1624262565.59375,0,0,0.0,0.0,1.0
1624262566.0625,0,0,11.590507437683955,0.0,1.0
1624262566.53125,0,0,0.0,0.0,1.0
1624262567.0,0,0,0.0,0.0,1.0
1624262567.46875,0,0,6.721599538374514,0.0,1.0
1624262567.9375,0,0,0.0,0.0,1.0
1624262568.40625,0,0,11.329762734820115,0.0,1.0
1624262568.875,0,0,18.4390976415512,0.0,1.0
1624262569.34375,0,0,0.0,0.0,1.0
1624262569.8125,0,0,9.271548096448367,0.0,1.0
1624262570.28125,0,0,7.393648024569192,0.0,1.0
1624262570.75,0,0,9.673478928416703,0.0,1.0
1624262571.21875,0,0,14.558430825197567,0.0,1.0
1624262571.6875,0,0,6.145406629685034,0.0,1.0
1624262572.15625,0,0,28.058677825220332,0.0,1.0
1624262572.625,0,0,0.0,0.0,1.0
1624262573.09375,0,0,7.052173612439875,0.0,1.0
1624262573.5625,0,0,0.0,0.0,1.0
1624262574.03125,0,0,20.43204384354026,0.0,1.0
1624262574.5,0,0,16.606667114918228,0.0,1.0
1624262574.96875,0,0,0.0,0.0,1.0
1624262575.4375,0,0,15.4757411042235,0.0,1.0
1624262575.90625,0,0,0.0,0.0,1.0
1624262576.375,0,0,0.0,0.0,1.0
1624262576.84375,0,0,14.776176983864708,0.0,1.0
1624262577.3125,0,0,0.0,0.0,1.0
1624262577.78125,0,0,12.639808658520277,0.0,1.0
1624262578.25,0,0,13.11014681521112,0.0,1.0
1624262578.71875,0,0,0.0,0.0,1.0
1624262579.1875,0,0,12.263498526856123,0.0,1.0
1624262579.65625,0,0,0.0,0.0,1.0
1624262580.125,0,0,13.605739150918772,0.0,1.0
1624262580.59375,0,0,13.104938224676093,0.0,1.0
1624262581.0625,0,0,0.0,0.0,1.0
1624262581.53125,0,0,15.371857400746721,0.0,1.0
1624262582.0,0,0,7.60926077616184,0.0,1.0
1624262582.46875,0,0,6.633263603097726,0.0,1.0
1624262582.9375,0,0,21.91529382900128,0.0,1.0
1624262583.40625,0,0,0.0,0.0,1.0
1624262583.875,0,0,18.844749304527667,0.0,1.0
1624262584.34375,0,0,14.662793762055548,0.0,1.0
1624262584.8125,0,0,0.0,0.0,1.0
1624262585.28125,0,0,18.44738677604949,0.0,1.0
1624262585.75,0,0,15.14627343135759,0.0,1.0
1624262586.21875,0,0,0.0,0.0,1.0
1624262586.6875,0,0,16.662082712456968,0.0,1.0
1624262587.15625,0,0,0.0,0.0,1.0
1624262587.625,0,0,17.18436936325232,0.0,1.0
1624262588.09375,0,0,16.371803469468915,0.0,1.0
1624262588.5625,0,0,0.0,0.0,1.0
1624262589.03125,0,0,16.680816907892837,0.0,1.0
1624262589.5,0,0,11.950992312386745,0.0,1.0
1624262589.96875,0,0,0.0,0.0,1.0
1624262590.4375,0,0,17.518580872744206,0.0,1.0
1624262590.90625,0,0,0.0,0.0,1.0
1624262591.375,0,0,0.0,0.0,1.0
1624262591.84375,0,0,12.480309027114307,0.0,1.0
1624262592.3125,0,0,0.0,0.0,1.0
1624262592.78125,0,0,16.502416338408366,0.0,1.0
1624262593.25,0,0,13.063865012386982,0.0,1.0
1624262593.71875,0,0,0.0,0.0,1.0
1624262594.1875,0,0,18.757288970815775,0.0,1.0
1624262594.65625,0,0,15.691672850987699,0.0,1.0
1624262595.125,0,0,0.0,0.0,1.0
1624262595.59375,0,0,13.943192934545618,0.0,1.0
1624262596.0625,0,0,0.0,0.0,1.0
1624262596.53125,0,0,15.801914450403826,0.0,1.0
1624262597.0,0,0,14.8530678833141,0.0,1.0
1624262597.46875,0,0,0.0,0.0,1.0
1624262597.9375,0,0,13.525735077087434,0.0,1.0
1624262598.40625,0,0,0.0,0.0,1.0
1624262598.875,0,0,15.146223027407117,0.0,1.0
1624262599.34375,0,0,0.0,0.0,1.0
1624262599.8125,0,0,13.923778102734184,0.0,1.0
1624262600.28125,0,0,16.13485756573704,0.0,1.0
1624262600.75,0,0,0.0,0.0,1.0
1624262601.21875,0,0,14.150236827400743,0.0,1.0
1624262601.6875,0,0,0.0,0.0,1.0
1624262602.15625,0,0,13.871047543954726,0.0,1.0
1624262602.625,0,0,16.84854609383426,0.0,1.0
1624262603.09375,0,0,0.0,0.0,1.0
1624262603.5625,0,0,15.13431585120692,0.0,1.0
1624262604.03125,0,0,18.795248824991297,0.0,1.0
1624262604.5,0,0,0.0,0.0,1.0
1624262604.96875,0,0,15.914181734850319,0.0,1.0
1624262605.4375,0,0,0.0,0.0,1.0
1624262605.90625,0,0,15.866861913473716,0.0,1.0
1624262606.375,0,0,16.149750842862012,0.0,1.0
1624262606.84375,0,0,0.0,0.0,1.0
1624262607.3125,0,0,16.818854309566877,0.0,1.0
1624262607.78125,0,0,0.0,0.0,1.0
1624262608.25,0,0,18.513213633778623,0.0,1.0
1624262608.71875,0,0,16.831361305624334,0.0,1.0
1624262609.1875,0,0,0.0,0.0,1.0
1624262609.65625,0,0,19.237796624814745,0.0,1.0
1624262610.125,0,0,0.0,0.0,1.0
1624262610.59375,0,0,15.287300326880572,0.0,1.0
1624262611.0625,0,0,17.71506381959345,0.0,1.0
1624262611.53125,0,0,0.0,0.0,1.0
1624262612.0,0,0,18.2639201072964,0.0,1.0
1624262612.46875,0,0,0.0,0.0,1.0
1624262612.9375,0,0,17.972304314521875,0.0,1.0
1624262613.40625,0,0,18.269291384158873,0.0,1.0
1624262613.875,0,0,0.0,0.0,1.0
1624262614.34375,0,0,17.569542353363858,0.0,1.0
1624262614.8125,0,0,0.0,0.0,1.0
1624262615.28125,0,0,18.31642032254314,0.0,1.0
1624262615.75,0,0,18.594335218954956,0.0,1.0
1624262616.21875,0,0,0.0,0.0,1.0
1624262616.6875,0,0,16.382246540684065,0.0,1.0
1624262617.15625,0,0,0.0,0.0,1.0
1624262617.625,0,0,17.557092715696637,0.0,1.0
1624262618.09375,0,0,0.0,0.0,1.0
1624262618.5625,0,0,8.546479166871839,0.0,1.0
1624262619.03125,0,0,16.245256960778935,0.0,1.0
1624262619.5,0,0,0.0,0.0,1.0
1624262619.96875,0,0,15.226748452106172,0.0,1.0
1624262620.4375,0,0,16.98707161119189,0.0,1.0
1624262620.90625,0,0,0.0,0.0,1.0
1624262621.375,0,0,18.32472600450213,0.0,1.0
1624262621.84375,0,0,0.0,0.0,1.0
1624262622.3125,0,0,17.08918515418366,0.0,1.0
1624262622.78125,0,0,17.850054250434994,0.0,1.0
1624262623.25,0,0,0.0,0.0,1.0
1624262623.71875,0,0,17.025576787457386,0.0,1.0
1624262624.1875,0,0,0.0,0.0,1.0
1624262624.65625,0,0,16.824443694063728,0.0,1.0
1624262625.125,0,0,18.766324469954025,0.0,1.0
1624262625.59375,0,0,0.0,0.0,1.0
1624262626.0625,0,0,18.045425038915567,0.0,1.0
1624262626.53125,0,0,0.0,0.0,1.0
1624262627.0,0,0,20.326971927130735,0.0,1.0
1624262627.46875,0,0,15.447399310737467,0.0,1.0
1624262627.9375,0,0,0.0,0.0,1.0
1624262628.40625,0,0,13.164054749298243,0.0,1.0
1624262628.875,0,0,17.65020929711649,0.0,1.0
1624262629.34375,0,0,0.0,0.0,1.0
1624262629.8125,0,0,12.689294654889359,0.0,1.0
1624262630.28125,0,0,11.404471464513676,0.0,1.0
1624262630.75,0,0,0.0,0.0,1.0
1624262631.21875,0,0,14.236772795770452,0.0,1.0
1624262631.6875,0,0,17.753894823878518,0.0,1.0
1624262632.15625,0,0,0.0,0.0,1.0
1624262632.625,0,0,0.0,0.0,1.0
1624262633.09375,0,0,18.681980761460522,0.0,1.0
1624262633.5625,0,0,0.0,0.0,1.0
1624262634.03125,0,0,17.21068051870975,0.0,1.0
1624262634.5,0,0,16.259738259095553,0.0,1.0
1624262634.96875,0,0,0.0,0.0,1.0
1624262635.4375,0,0,17.872428991340865,0.0,1.0
1624262635.90625,0,0,0.0,0.0,1.0
1624262636.375,0,0,18.951205345591625,0.0,1.0
1624262636.84375,0,0,18.036962598110534,0.0,1.0
1624262637.3125,0,0,0.0,0.0,1.0
1624262637.78125,0,0,15.901773848273214,0.0,1.0
1624262638.25,0,0,18.861760161482128,0.0,1.0
1624262638.71875,0,0,0.0,0.0,1.0
1624262639.1875,0,0,22.262060395560233,0.0,1.0
1624262639.65625,0,0,0.0,0.0,1.0
1624262640.125,0,0,21.212531029601408,0.0,1.0
1624262640.59375,0,0,0.0,0.0,1.0
1624262641.0625,0,0,17.501036145667157,0.0,1.0
1624262641.53125,0,0,19.409236735336496,0.0,1.0
1624262642.0,0,0,0.0,0.0,1.0
1624262642.46875,0,0,17.400590011582604,0.0,1.0
1624262642.9375,0,0,12.012150078250038,0.0,1.0
1624262643.40625,0,0,16.96314060592792,0.0,1.0
1624262643.875,0,0,0.0,0.0,1.0
1624262644.34375,0,0,16.304733154553126,0.0,1.0
1624262644.8125,0,0,18.072910406385425,0.0,1.0
1624262645.28125,0,0,0.0,0.0,1.0
1624262645.75,0,0,17.886610756976502,0.0,1.0
1624262646.21875,0,0,17.87523864198218,0.0,1.0
1624262646.6875,0,0,0.0,0.0,1.0
1624262647.15625,0,0,16.567948928480696,0.0,1.0
1624262647.625,0,0,0.0,0.0,1.0
1624262648.09375,0,0,14.21210097584381,0.0,1.0
1624262648.5625,0,0,17.400443022968744,0.0,1.0
1624262649.03125,0,0,0.0,0.0,1.0
1624262649.5,0,0,18.57555596412937,0.0,1.0
1624262649.96875,0,0,0.0,0.0,1.0
1624262650.4375,0,0,16.408160303386673,0.0,1.0
1624262650.90625,0,0,0.0,0.0,1.0
1624262651.375,0,0,0.0,0.0,1.0
1624262651.84375,0,0,15.50028582462117,0.0,1.0
1624262652.3125,0,0,0.0,0.0,1.0
1624262652.78125,0,0,16.070428179015256,0.0,1.0
1624262653.25,0,0,0.0,0.0,1.0
1624262653.71875,0,0,15.827727847673476,0.0,1.0
1624262654.1875,0,0,16.847073686019957,0.0,1.0
1624262654.65625,0,0,0.0,0.0,1.0
1624262655.125,0,0,19.45814796402045,0.0,1.0
1624262655.59375,0,0,0.0,0.0,1.0
1624262656.0625,0,0,17.66201040070537,0.0,1.0
1624262656.53125,0,0,17.141943628769052,0.0,1.0
1624262657.0,0,0,0.0,0.0,1.0
1624262657.46875,0,0,17.23547675367725,0.0,1.0
1624262657.9375,0,0,18.6520162563202,0.0,1.0
1624262658.40625,0,0,0.0,0.0,1.0
1624262658.875,0,0,19.5411989769944,0.0,1.0
1624262659.34375,0,0,0.0,0.0,1.0
1624262659.8125,0,0,17.257772919645728,0.0,1.0
1624262660.28125,0,0,17.428606000299943,0.0,1.0
1624262660.75,0,0,0.0,0.0,1.0
1624262661.21875,0,0,13.797030774173647,0.0,1.0
1624262661.6875,0,0,0.0,0.0,1.0
1624262662.15625,0,0,14.20521962148678,0.0,1.0
1624262662.625,0,0,15.393728378182084,0.0,1.0
1624262663.09375,0,0,0.0,0.0,1.0
1624262663.5625,0,0,13.94698538073399,0.0,1.0
1624262664.03125,0,0,13.896458115074719,0.0,1.0
1624262664.5,0,0,0.0,0.0,1.0
1624262664.96875,0,0,13.08877205637764,0.0,1.0
1624262665.4375,0,0,0.0,0.0,1.0
1624262665.90625,0,0,0.0,0.0,1.0
1624262666.375,0,0,15.877471954241978,0.0,1.0
1624262666.84375,0,0,0.0,0.0,1.0
1624262667.3125,0,0,12.891957041978031,0.0,1.0
1624262667.78125,0,0,13.08142087055252,0.0,1.0
1624262668.25,0,0,10.819303822971966,0.0,1.0
1624262668.71875,0,0,13.224931657807515,0.0,1.0
1624262669.1875,0,0,0.0,0.0,1.0
1624262669.65625,0,0,14.342048272820394,0.0,1.0
1624262670.125,0,0,16.43239342132527,0.0,1.0
1624262670.59375,0,0,0.0,0.0,1.0
1624262671.0625,0,0,14.476760768510337,0.0,1.0
1624262671.53125,0,0,0.0,0.0,1.0
1624262672.0,0,0,14.45752183895669,0.0,1.0
1624262672.46875,0,0,15.238397302789258,0.0,1.0
1624262672.9375,0,0,0.0,0.0,1.0
1624262673.40625,0,0,14.752721409925918,0.0,1.0
1624262673.875,0,0,0.0,0.0,1.0
1624262674.34375,0,0,19.06072012141017,0.0,1.0
1624262674.8125,0,0,19.737472507180936,0.0,1.0
1624262675.28125,0,0,0.0,0.0,1.0
1624262675.75,0,0,19.213043474096693,0.0,1.0
1624262676.21875,0,0,0.0,0.0,1.0
1624262676.6875,0,0,0.0,0.0,1.0
1624262677.15625,0,0,19.992032978615605,0.0,1.0
1624262677.625,0,0,0.0,0.0,1.0
1624262678.09375,0,0,19.0094920810962,0.0,1.0
1624262678.5625,0,0,0.0,0.0,1.0
1624262679.03125,0,0,17.895011503246298,0.0,1.0
1624262679.5,0,0,18.657362163413104,0.0,1.0
1624262679.96875,0,0,0.0,0.0,1.0
1624262680.4375,0,0,19.23559970337318,0.0,1.0
1624262680.90625,0,0,0.0,0.0,1.0
1624262681.375,0,0,0.0,0.0,1.0
1624262681.84375,0,0,17.831158473263276,0.0,1.0
1624262682.3125,0,0,0.0,0.0,1.0
1624262682.78125,0,0,13.385996961872019,0.0,1.0
1624262683.25,0,0,22.473906629458902,0.0,1.0
1624262683.71875,0,0,0.0,0.0,1.0
1624262684.1875,0,0,19.005524088480552,0.0,1.0
1624262684.65625,0,0,15.837308461982085,0.0,1.0
1624262685.125,0,0,12.147351624132323,0.0,1.0
1624262685.59375,0,0,13.120208051471577,0.0,1.0
1624262686.0625,0,0,0.0,0.0,1.0
1624262686.53125,0,0,14.36818355863939,0.0,1.0
1624262687.0,0,0,17.00902154930185,0.0,1.0
1624262687.46875,0,0,0.0,0.0,1.0
1624262687.9375,0,0,11.551494276740558,0.0,1.0
1624262688.40625,0,0,0.0,0.0,1.0
1624262688.875,0,0,13.500553699752977,0.0,1.0
1624262689.34375,0,0,15.130716193584686,0.0,1.0
1624262689.8125,0,0,0.0,0.0,1.0
1624262690.28125,0,0,12.627603171843024,0.0,1.0
1624262690.75,0,0,0.0,0.0,1.0
1624262691.21875,0,0,14.056024790739608,0.0,1.0
1624262691.6875,0,0,1.193418331906558,0.0,1.0
1624262692.15625,0,0,24.919734922497934,0.0,1.0
1624262692.625,0,0,0.0,0.0,1.0
1624262693.09375,0,0,6.985985337848878,0.0,1.0
1624262693.5625,0,0,27.16072829827189,0.0,1.0
1624262694.03125,0,0,0.0,0.0,1.0
1624262694.5,0,0,20.56612880195624,0.0,1.0
1624262694.96875,0,0,15.490394253080767,0.0,1.0
1624262695.4375,0,0,0.0,0.0,1.0
1624262695.90625,0,0,12.174261337425758,0.0,1.0
1624262696.375,0,0,12.00814350036226,0.0,1.0
1624262696.84375,0,0,2.5420467646191254,0.0,1.0
1624262697.3125,0,0,1.3980368484310957,0.0,1.0
1624262697.78125,0,0,9.360135229002186,0.0,1.0
1624262698.25,0,0,7.411998374243866,0.0,1.0
1624262698.71875,0,0,9.576528438557984,0.0,1.0
1624262699.1875,0,0,0.0,0.0,1.0
1624262699.65625,0,0,11.437104471027103,0.0,1.0
1624262700.125,0,0,13.499484585188286,0.0,1.0
1624262700.59375,0,0,14.355217919381088,0.0,1.0
1624262701.0625,0,0,0.0,0.0,1.0
1624262701.53125,0,0,15.98050139836794,0.0,1.0
1624262702.0,0,0,15.911606314022395,0.0,1.0
1624262702.46875,0,0,17.715116472159753,0.0,1.0
1624262702.9375,0,0,0.0,0.0,1.0
1624262703.40625,0,0,17.63115520242908,0.0,1.0
1624262703.875,0,0,16.33444643848129,0.0,1.0
1624262704.34375,0,0,5.478110623730175,0.0,1.0
1624262704.8125,0,0,15.91374253522319,0.0,1.0
1624262705.28125,0,0,17.060337722156117,0.0,1.0
1624262705.75,0,0,0.0,0.0,1.0
1624262706.21875,0,0,15.7391897942399,0.0,1.0
1624262706.6875,0,0,19.380778697976737,0.0,1.0
1624262707.15625,0,0,0.0,0.0,1.0
1624262707.625,0,0,17.657963062187623,0.0,1.0
1624262708.09375,0,0,19.51432038991122,0.0,1.0
1624262708.5625,0,0,0.0,0.0,1.0
1624262709.03125,0,0,18.811815982234414,0.0,1.0
1624262709.5,0,0,0.0,0.0,1.0
1624262709.96875,0,0,0.0,0.0,1.0
1624262710.4375,0,0,18.733657049121963,0.0,1.0
1624262710.90625,0,0,0.0,0.0,1.0
1624262711.375,0,0,18.88132221244368,0.0,1.0
1624262711.84375,0,0,18.00544457686,0.0,1.0
1624262712.3125,0,0,8.575686434019778,0.0,1.0
1624262712.78125,0,0,17.573352210398834,0.0,1.0
1624262713.25,0,0,0.0,0.0,1.0
1624262713.71875,0,0,15.743224277396006,0.0,1.0
1624262714.1875,0,0,16.478094380061137,0.0,1.0
1624262714.65625,0,0,0.0,0.0,1.0
1624262715.125,0,0,16.455935923187113,0.0,1.0
1624262715.59375,0,0,15.937738709330672,0.0,1.0
1624262716.0625,0,0,0.0,0.0,1.0
1624262716.53125,0,0,15.082167036770835,0.0,1.0
1624262717.0,0,0,15.128051466548055,0.0,1.0
1624262717.46875,0,0,0.0,0.0,1.0
1624262717.9375,0,0,14.681368815914459,0.0,1.0
1624262718.40625,0,0,16.067038432157418,0.0,1.0
1624262718.875,0,0,0.0,0.0,1.0
1624262719.34375,0,0,15.670490338958249,0.0,1.0
1624262719.8125,0,0,13.809554481958257,0.0,1.0
1624262720.28125,0,0,0.0,0.0,1.0
1624262720.75,0,0,17.256609580036457,0.0,1.0
1624262721.21875,0,0,16.366780236490886,0.0,1.0
1624262721.6875,0,0,0.0,0.0,1.0
1624262722.15625,0,0,16.32972149216281,0.0,1.0
1624262722.625,0,0,15.250537896087474,0.0,1.0
1624262723.09375,0,0,0.0,0.0,1.0
1624262723.5625,0,0,17.744508775848306,0.0,1.0
1624262724.03125,0,0,0.0,0.0,1.0
1624262724.5,0,0,15.258218296879484,0.0,1.0
1624262724.96875,0,0,15.211132048330814,0.0,1.0
1624262725.4375,0,0,0.0,0.0,1.0
1624262725.90625,0,0,14.631756967283861,0.0,1.0
1624262726.375,0,0,13.169654324666068,0.0,1.0
1624262726.84375,0,0,0.0,0.0,1.0
1624262727.3125,0,0,14.245391825266491,0.0,1.0
1624262727.78125,0,0,16.784923404344973,0.0,1.0
1624262728.25,0,0,0.0,0.0,1.0
1624262728.71875,0,0,15.130197787517071,0.0,1.0
1624262729.1875,0,0,14.530908553662151,0.0,1.0
1624262729.65625,0,0,0.0,0.0,1.0
1624262730.125,0,0,12.451516910588618,0.0,1.0
1624262730.59375,0,0,15.944352520804784,0.0,1.0
1624262731.0625,0,0,0.0,0.0,1.0
1624262731.53125,0,0,18.115212675594147,0.0,1.0
1624262732.0,0,0,15.942537100294665,0.0,1.0
1624262732.46875,0,0,0.0,0.0,1.0
1624262732.9375,0,0,15.76803745845874,0.0,1.0
1624262733.40625,0,0,16.688585484689412,0.0,1.0
1624262733.875,0,0,0.0,0.0,1.0
1624262734.34375,0,0,14.511113017543039,0.0,1.0
1624262734.8125,0,0,13.23484609155772,0.0,1.0
1624262735.28125,0,0,0.0,0.0,1.0
1624262735.75,0,0,14.219256923108537,0.0,1.0
1624262736.21875,0,0,14.952602696916577,0.0,1.0
1624262736.6875,0,0,0.0,0.0,1.0
1624262737.15625,0,0,15.631439753145816,0.0,1.0
1624262737.625,0,0,0.0,0.0,1.0
1624262738.09375,0,0,14.728676033642483,0.0,1.0
1624262738.5625,0,0,18.402768542210424,0.0,1.0
1624262739.03125,0,0,0.0,0.0,1.0
1624262739.5,0,0,17.369044672520662,0.0,1.0
1624262739.96875,0,0,18.210600267152643,0.0,1.0
1624262740.4375,0,0,0.0,0.0,1.0
1624262740.90625,0,0,19.044418620776824,0.0,1.0
1624262741.375,0,0,0.0,0.0,1.0
1624262741.84375,0,0,16.36314184091592,0.0,1.0
1624262742.3125,0,0,18.16470026694483,0.0,1.0
1624262742.78125,0,0,0.0,0.0,1.0
1624262743.25,0,0,19.243426410032562,0.0,1.0
1624262743.71875,0,0,0.0,0.0,1.0
1624262744.1875,0,0,16.776165692997594,0.0,1.0
1624262744.65625,0,0,17.36104473148587,0.0,1.0
1624262745.125,0,0,0.0,0.0,1.0
1624262745.59375,0,0,20.302820871778348,0.0,1.0
1624262746.0625,0,0,0.0,0.0,1.0
1624262746.53125,0,0,19.988245366521003,0.0,1.0
1624262747.0,0,0,16.48682447992834,0.0,1.0
1624262747.46875,0,0,0.0,0.0,1.0
1624262747.9375,0,0,18.292845977912442,0.0,1.0
1624262748.40625,0,0,21.420131913434513,0.0,1.0
1624262748.875,0,0,0.0,0.0,1.0
1624262749.34375,0,0,19.211921236891303,0.0,1.0
1624262749.8125,0,0,16.650201107015715,0.0,1.0
1624262750.28125,0,0,0.0,0.0,1.0
1624262750.75,0,0,16.637273830559085,0.0,1.0
1624262751.21875,0,0,16.602456259023416,0.0,1.0
1624262751.6875,0,0,0.0,0.0,1.0
1624262752.15625,0,0,24.31234963353426,0.0,1.0
1624262752.625,0,0,35.62492233221074,0.0,1.0
1624262753.09375,0,0,0.0,0.0,1.0
1624262753.5625,0,0,16.792437127681268,0.0,1.0
1624262754.03125,0,0,23.998934579227974,0.0,1.0
1624262754.5,0,0,0.0,0.0,1.0
1624262754.96875,0,0,18.806676468766113,0.0,1.0
1624262755.4375,0,0,20.456708292054326,0.0,1.0
1624262755.90625,0,0,0.0,0.0,1.0
1624262756.375,0,0,20.620784618535954,0.0,1.0
1624262756.84375,0,0,17.72588836897125,0.0,1.0
1624262757.3125,0,0,0.0,0.0,1.0
1624262757.78125,0,0,17.576741562862505,0.0,1.0
1624262758.25,0,0,14.317031494053452,0.0,1.0
1624262758.71875,0,0,17.208601098359,0.0,1.0
1624262759.1875,0,0,0.0,0.0,1.0
1624262759.65625,0,0,16.941242749946337,0.0,1.0
1624262760.125,0,0,16.100272164551562,0.0,1.0
1624262760.59375,0,0,3.547073522960087,0.0,1.0
1624262761.0625,0,0,19.365997406776916,0.0,1.0
1624262761.53125,0,0,19.054570792271587,0.0,1.0
1624262762.0,0,0,0.0,0.0,1.0
1624262762.46875,0,0,18.20646143982521,0.0,1.0
1624262762.9375,0,0,18.25947461142225,0.0,1.0
1624262763.40625,0,0,0.0,0.0,1.0
1624262763.875,0,0,0.0,0.0,1.0
1624262764.34375,0,0,16.540642646069895,0.0,1.0
1624262764.8125,0,0,0.0,0.0,1.0
1624262765.28125,0,0,16.873328171792956,0.0,1.0
1624262765.75,0,0,15.441185396357566,0.0,1.0
1624262766.21875,0,0,0.0,0.0,1.0
1624262766.6875,0,0,16.06740126940134,0.0,1.0
1624262767.15625,0,0,16.683085716183054,0.0,1.0
1624262767.625,0,0,7.108782757981176,0.0,1.0
1624262768.09375,0,0,14.190097134014382,0.0,1.0
1624262768.5625,0,0,14.805531283480121,0.0,1.0
1624262769.03125,0,0,0.0,0.0,1.0
1624262769.5,0,0,12.862949276954996,0.0,1.0
1624262769.96875,0,0,0.0,0.0,1.0
1624262770.4375,0,0,15.207508705896627,0.0,1.0
1624262770.90625,0,0,15.41737161469693,0.0,1.0
1624262771.375,0,0,0.0,0.0,1.0
1624262771.84375,0,0,16.182326959115997,0.0,1.0
1624262772.3125,0,0,16.31732785359289,0.0,1.0
1624262772.78125,0,0,0.0,0.0,1.0
1624262773.25,0,0,15.643220547766907,0.0,1.0
1624262773.71875,0,0,16.43447099546359,0.0,1.0
1624262774.1875,0,0,0.0,0.0,1.0
1624262774.65625,0,0,18.06154746971102,0.0,1.0
1624262775.125,0,0,0.0,0.0,1.0
1624262775.59375,0,0,16.093107441802207,0.0,1.0
1624262776.0625,0,0,18.282999850990514,0.0,1.0
1624262776.53125,0,0,0.0,0.0,1.0
1624262777.0,0,0,17.50059370826989,0.0,1.0
1624262777.46875,0,0,18.09353485712354,0.0,1.0
1624262777.9375,0,0,0.0,0.0,1.0
1624262778.40625,0,0,19.33671509874705,0.0,1.0
1624262778.875,0,0,18.123630372342436,0.0,1.0
1624262779.34375,0,0,0.0,0.0,1.0
1624262779.8125,0,0,18.461410570103247,0.0,1.0
1624262780.28125,0,0,0.0,0.0,1.0
1624262780.75,0,0,0.0,0.0,1.0
1624262781.21875,0,0,17.340198810078665,0.0,1.0
1624262781.6875,0,0,0.0,0.0,1.0
1624262782.15625,0,0,18.635129881935242,0.0,1.0
1624262782.625,0,0,16.15555752071869,0.0,1.0
1624262783.09375,0,0,0.0,0.0,1.0
1624262783.5625,0,0,17.316219108837164,0.0,1.0
1624262784.03125,0,0,0.0,0.0,1.0
1624262784.5,0,0,15.637676117533433,0.0,1.0
1624262784.96875,0,0,16.47630097344537,0.0,1.0
1624262785.4375,0,0,0.0,0.0,1.0
1624262785.90625,0,0,16.275415471094814,0.0,1.0
1624262786.375,0,0,0.0,0.0,1.0
1624262786.84375,0,0,15.033945602977193,0.0,1.0
1624262787.3125,0,0,17.231677585970633,0.0,1.0
1624262787.78125,0,0,0.0,0.0,1.0
1624262788.25,0,0,0.0,0.0,1.0
1624262788.71875,0,0,15.779510715198114,0.0,1.0
1624262789.1875,0,0,0.0,0.0,1.0
1624262789.65625,0,0,18.030095499908693,0.0,1.0
1624262790.125,0,0,17.019895803498287,0.0,1.0
1624262790.59375,0,0,0.0,0.0,1.0
1624262791.0625,0,0,16.87531552906803,0.0,1.0
1624262791.53125,0,0,15.365895280286285,0.0,1.0
1624262792.0,0,0,0.0,0.0,1.0
1624262792.46875,0,0,15.95286442316401,0.0,1.0
1624262792.9375,0,0,0.0,0.0,1.0
1624262793.40625,0,0,15.189666900036707,0.0,1.0
1624262793.875,0,0,16.81171642689238,0.0,1.0
1624262794.34375,0,0,0.0,0.0,1.0
1624262794.8125,0,0,14.705877630831766,0.0,1.0
1624262795.28125,0,0,17.084699556416385,0.0,1.0
1624262795.75,0,0,0.0,0.0,1.0
1624262796.21875,0,0,18.209570224614964,0.0,1.0
1624262796.6875,0,0,18.68066433796241,0.0,1.0
1624262797.15625,0,0,0.0,0.0,1.0
1624262797.625,0,0,20.571033876661083,0.0,1.0
1624262798.09375,0,0,16.36388059110422,0.0,1.0
1624262798.5625,0,0,0.0,0.0,1.0
1624262799.03125,0,0,16.14836394981763,0.0,1.0
1624262799.5,0,0,14.207622898562397,0.0,1.0
1624262799.96875,0,0,0.0,0.0,1.0
1624262800.4375,0,0,16.098524332939526,0.0,1.0
1624262800.90625,0,0,0.0,0.0,1.0
1624262801.375,0,0,13.421194059559259,0.0,1.0
1624262801.84375,0,0,13.662266599232373,0.0,1.0
1624262802.3125,0,0,0.0,0.0,1.0
1624262802.78125,0,0,14.470595331864455,0.0,1.0
1624262803.25,0,0,15.063603660760895,0.0,1.0
1624262803.71875,0,0,0.0,0.0,1.0
1624262804.1875,0,0,14.386888066317596,0.0,1.0
1624262804.65625,0,0,0.0,0.0,1.0
1624262805.125,0,0,61.47526366338399,0.0,1.0
1624262805.59375,0,0,59.95697775143664,0.0,1.0
1624262806.0625,0,0,148.69919758570035,0.0,1.0
1624262806.53125,0,0,7.473753817831277,0.0,1.0
1624262807.0,0,0,48.630523942091955,0.0,1.0
1624262807.46875,0,0,3.5514962246379524,0.0,1.0
1624262807.9375,0,0,133.42103993156465,0.0,1.0
1624262808.40625,0,0,41.76113815918785,0.0,1.0
1624262808.875,0,0,-21.93419223249187,0.0,1.0
1624262809.34375,0,0,142.44339425669736,0.0,1.0
1624262809.8125,0,0,-4.409879853423876,0.0,1.0
1624262810.28125,0,0,15.953467387935307,0.0,1.0
1624262810.75,0,0,0.0,0.0,1.0
1624262811.21875,0,0,16.794826132162655,0.0,1.0
1624262811.6875,0,0,19.569255846724314,0.0,1.0
1624262812.15625,0,0,0.0,0.0,1.0
1624262812.625,0,0,17.206001558103598,0.0,1.0
1624262813.09375,0,0,17.5797379482723,0.0,1.0
1624262813.5625,0,0,0.0,0.0,1.0
1624262814.03125,0,0,15.318498057755598,0.0,1.0
1624262814.5,0,0,21.65310538642938,0.0,1.0
1624262814.96875,0,0,0.0,0.0,1.0
1624262815.4375,0,0,47.516054738951695,0.0,1.0
1624262815.90625,0,0,11.850446892869172,0.0,1.0
1624262816.375,0,0,0.0,0.0,1.0
1624262816.84375,0,0,13.739683322677962,0.0,1.0
1624262817.3125,0,0,17.870343165871258,0.0,1.0
1624262817.78125,0,0,0.0,0.0,1.0
1624262818.25,0,0,14.738436023110685,0.0,1.0
1624262818.71875,0,0,14.910677861520995,0.0,1.0
1624262819.1875,0,0,0.0,0.0,1.0
1624262819.65625,0,0,15.094526365274469,0.0,1.0
1624262820.125,0,0,14.74561369301239,0.0,1.0
1624262820.59375,0,0,0.0,0.0,1.0
1624262821.0625,0,0,14.050147680411639,0.0,1.0
1624262821.53125,0,0,0.0,0.0,1.0
1624262822.0,0,0,14.008284686188668,0.0,1.0
1624262822.46875,0,0,14.37453402698942,0.0,1.0
1624262822.9375,0,0,0.0,0.0,1.0
1624262823.40625,0,0,12.232535402522617,0.0,1.0
1624262823.875,0,0,0.0,0.0,1.0
1624262824.34375,0,0,0.0,0.0,1.0
1624262824.8125,0,0,15.113628475478915,0.0,1.0
1624262825.28125,0,0,0.0,0.0,1.0
1624262825.75,0,0,0.0,0.0,1.0
1624262826.21875,0,0,14.510964362803442,0.0,1.0
1624262826.6875,0,0,17.895159658991766,0.0,1.0
1624262827.15625,0,0,0.0,0.0,1.0
1624262827.625,0,0,24.860430722079883,0.0,1.0
1624262828.09375,0,0,53.70849947237101,0.0,1.0
1624262828.5625,0,0,0.0,0.0,1.0
1624262829.03125,0,0,12.328288211562969,0.0,1.0
1624262829.5,0,0,0.0,0.0,1.0
1624262829.96875,0,0,16.736862275913488,0.0,1.0
1624262830.4375,0,0,14.341679007904842,0.0,1.0
1624262830.90625,0,0,0.0,0.0,1.0
1624262831.375,0,0,11.338077067305903,0.0,1.0
1624262831.84375,0,0,0.0,0.0,1.0
1624262832.3125,0,0,13.735202624039625,0.0,1.0
1624262832.78125,0,0,15.348694330187454,0.0,1.0
1624262833.25,0,0,0.0,0.0,1.0
1624262833.71875,0,0,14.678253261249683,0.0,1.0
1624262834.1875,0,0,0.0,0.0,1.0
1624262834.65625,0,0,14.959487547872545,0.0,1.0
1624262835.125,0,0,0.0,0.0,1.0
1624262835.59375,0,0,0.0,0.0,1.0
1624262836.0625,0,0,16.710874346424422,0.0,1.0
1624262836.53125,0,0,0.0,0.0,1.0
1624262837.0,0,0,16.380778847430218,0.0,1.0
1624262837.46875,0,0,17.406681396525336,0.0,1.0
1624262837.9375,0,0,0.0,0.0,1.0
1624262838.40625,0,0,17.307862675532437,0.0,1.0
1624262838.875,0,0,0.0,0.0,1.0
1624262839.34375,0,0,19.987083679131107,0.0,1.0
1624262839.8125,0,0,21.253119806361283,0.0,1.0
1624262840.28125,0,0,0.0,0.0,1.0
1624262840.75,0,0,19.487944293286315,0.0,1.0
1624262841.21875,0,0,0.0,0.0,1.0
1624262841.6875,0,0,22.24772275476543,0.0,1.0
1624262842.15625,0,0,24.72928175731004,0.0,1.0
1624262842.625,0,0,18.01037014549678,0.0,1.0
1624262843.09375,0,0,23.758905649760713,0.0,1.0
1624262843.5625,0,0,0.0,0.0,1.0
1624262844.03125,0,0,21.895843518605822,0.0,1.0
1624262844.5,0,0,24.44830352233501,0.0,1.0
1624262844.96875,0,0,0.0,0.0,1.0
1624262845.4375,0,0,26.06202531954824,0.0,1.0
1624262845.90625,0,0,0.0,0.0,1.0
1624262846.375,0,0,21.19793347158063,0.0,1.0
1624262846.84375,0,0,0.0,0.0,1.0
1624262847.3125,0,0,24.427594287347823,0.0,1.0
1624262847.78125,0,0,26.030106974410185,0.0,1.0
1624262848.25,0,0,0.0,0.0,1.0
1624262848.71875,0,0,24.13543558422662,0.0,1.0
1624262849.1875,0,0,0.0,0.0,1.0
1624262849.65625,0,0,22.109808847242352,0.0,1.0
1624262850.125,0,0,28.2790562412714,0.0,1.0
1624262850.59375,0,0,0.0,0.0,1.0
1624262851.0625,0,0,110.74849793116599,0.0,1.0
1624262851.53125,0,0,68.69002373941477,0.0,1.0
1624262852.0,0,0,0.0,0.0,1.0
1624262852.46875,0,0,173.93698457742568,0.0,1.0
1624262852.9375,0,0,225.70536089092565,0.0,1.0
1624262853.40625,0,0,-25.595297888202108,0.0,1.0
1624262853.875,0,0,476.6332030380811,0.0,1.0
1624262854.34375,0,0,99.48971921073081,0.0,1.0
1624262854.8125,0,0,345.0803346551238,0.0,1.0
1624262855.28125,0,0,358.8543970253159,0.0,1.0
1624262855.75,0,0,-91.08711133109732,0.0,1.0
1624262856.21875,0,0,388.02629244175995,0.0,1.0
1624262856.6875,0,0,225.08460973931125,0.0,1.0
1624262857.15625,0,0,28.693471305059305,0.0,1.0
1624262857.625,0,0,118.31172166288562,0.0,1.0
1624262858.09375,0,0,-42.93955711743261,0.0,1.0
1624262858.5625,0,0,339.57513763589833,0.0,1.0
1624262859.03125,0,0,0.0,0.0,1.0
1624262859.5,0,0,225.14803745426835,0.0,1.0
1624262859.96875,0,0,234.55183846986415,0.0,1.0
1624262860.4375,0,0,0.0,0.0,1.0
1624262860.90625,0,0,164.40153659884118,0.0,1.0
1624262861.375,0,0,3.9237306352670513,0.0,1.0
1624262861.84375,0,0,0.0,0.0,1.0
1624262862.3125,0,0,82.8305139949462,0.0,1.0
1624262862.78125,0,0,129.13679701770423,0.0,1.0
1624262863.25,0,0,0.0,0.0,1.0
1624262863.71875,0,0,50.500558891833286,0.0,1.0
1624262864.1875,0,0,0.0,0.0,1.0
1624262864.65625,0,0,25.080484335707936,0.0,1.0
1624262865.125,0,0,0.0,0.0,1.0
1624262865.59375,0,0,9.128529624977984,0.0,1.0
1624262866.0625,0,0,7.2748764446624925,0.0,1.0
1624262866.53125,0,0,9.023875269354374,0.0,1.0
1624262867.0,0,0,0.0,0.0,1.0
1624262867.46875,0,0,9.117407224001216,0.0,1.0
1624262867.9375,0,0,9.75281964216112,0.0,1.0
1624262868.40625,0,0,0.0,0.0,1.0
1624262868.875,0,0,0.0,0.0,1.0
1624262869.34375,0,0,52.59479044968726,0.0,1.0
1624262869.8125,0,0,9.195713527466356,0.0,1.0
1624262870.28125,0,0,0.0,0.0,1.0
1624262870.75,0,0,10.089977614072819,0.0,1.0
1624262871.21875,0,0,13.492663965346301,0.0,1.0
1624262871.6875,0,0,0.0,0.0,1.0
1624262872.15625,0,0,11.25028382378837,0.0,1.0
1624262872.625,0,0,12.551783858522269,0.0,1.0
1624262873.09375,0,0,0.0,0.0,1.0
1624262873.5625,0,0,14.381259230084735,0.0,1.0
1624262874.03125,0,0,0.0,0.0,1.0
1624262874.5,0,0,0.0,0.0,1.0
1624262874.96875,0,0,16.2965077135003,0.0,1.0
1624262875.4375,0,0,0.0,0.0,1.0
1624262875.90625,0,0,36.87233659399737,0.0,1.0
1624262876.375,0,0,26.324922600057523,0.0,1.0
1624262876.84375,0,0,0.0,0.0,1.0
1624262877.3125,0,0,17.022349227930437,0.0,1.0
1624262877.78125,0,0,0.0,0.0,1.0
1624262878.25,0,0,46.46056272267452,0.0,1.0
1624262878.71875,0,0,13.579906082521903,0.0,1.0
1624262879.1875,0,0,0.0,0.0,1.0
1624262879.65625,0,0,14.808214987343534,0.0,1.0
1624262880.125,0,0,16.417303055976475,0.0,1.0
1624262880.59375,0,0,0.0,0.0,1.0
1624262881.0625,0,0,16.73479128013663,0.0,1.0
1624262881.53125,0,0,0.0,0.0,1.0
1624262882.0,0,0,17.063899570759236,0.0,1.0
1624262882.46875,0,0,18.64454228859909,0.0,1.0
1624262882.9375,0,0,0.0,0.0,1.0
1624262883.40625,0,0,15.259508080850646,0.0,1.0
1624262883.875,0,0,19.801067212754393,0.0,1.0
1624262884.34375,0,0,0.0,0.0,1.0
1624262884.8125,0,0,12.894766604508877,0.0,1.0
1624262885.28125,0,0,16.85585691149162,0.0,1.0
1624262885.75,0,0,0.0,0.0,1.0
1624262886.21875,0,0,12.745051534783656,0.0,1.0
1624262886.6875,0,0,0.0,0.0,1.0
1624262887.15625,0,0,11.878679752600123,0.0,1.0
1624262887.625,0,0,22.642106113299207,0.0,1.0
1624262888.09375,0,0,0.0,0.0,1.0
1624262888.5625,0,0,61.766873138021204,0.0,1.0
1624262889.03125,0,0,12.304514569227498,0.0,1.0
1624262889.5,0,0,0.0,0.0,1.0
1624262889.96875,0,0,24.69604922655452,0.0,1.0
1624262890.4375,0,0,0.0,0.0,1.0
1624262890.90625,0,0,0.0,0.0,1.0
1624262891.375,0,0,23.47521818702468,0.0,1.0
1624262891.84375,0,0,0.0,0.0,1.0
1624262892.3125,0,0,19.68344247262365,0.0,1.0
1624262892.78125,0,0,18.935014569581277,0.0,1.0
1624262893.25,0,0,0.0,0.0,1.0
1624262893.71875,0,0,22.942743915010702,0.0,1.0
1624262894.1875,0,0,27.33395158486253,0.0,1.0
1624262894.65625,0,0,0.0,0.0,1.0
1624262895.125,0,0,19.36357399296256,0.0,1.0
1624262895.59375,0,0,0.0,0.0,1.0
1624262896.0625,0,0,21.71535156896026,0.0,1.0
1624262896.53125,0,0,21.886035204762763,0.0,1.0
1624262897.0,0,0,0.0,0.0,1.0
1624262897.46875,0,0,16.958429700568956,0.0,1.0
1624262897.9375,0,0,0.0,0.0,1.0
1624262898.40625,0,0,0.0,0.0,1.0
1624262898.875,0,0,18.54900930293953,0.0,1.0
1624262899.34375,0,0,0.0,0.0,1.0
1624262899.8125,0,0,21.819143162158582,0.0,1.0
1624262900.28125,0,0,20.96882372139472,0.0,1.0
1624262900.75,0,0,0.0,0.0,1.0
1624262901.21875,0,0,21.627567987238407,0.0,1.0
1624262901.6875,0,0,26.454436599284733,0.0,1.0
1624262902.15625,0,0,0.0,0.0,1.0
1624262902.625,0,0,21.8960364936526,0.0,1.0
1624262903.09375,0,0,23.69684619204539,0.0,1.0
1624262903.5625,0,0,0.0,0.0,1.0
1624262904.03125,0,0,23.0958027611413,0.0,1.0
1624262904.5,0,0,24.273234369804506,0.0,1.0
1624262904.96875,0,0,0.0,0.0,1.0
1624262905.4375,0,0,25.573220630273422,0.0,1.0
1624262905.90625,0,0,19.983868412033182,0.0,1.0
1624262906.375,0,0,0.0,0.0,1.0
1624262906.84375,0,0,28.78467842435342,0.0,1.0
1624262907.3125,0,0,24.876957295911033,0.0,1.0
1624262907.78125,0,0,0.0,0.0,1.0
1624262908.25,0,0,36.46115226413621,0.0,1.0
1624262908.71875,0,0,0.0,0.0,1.0
1624262909.1875,0,0,66.85922122934987,0.0,1.0
1624262909.65625,0,0,18.28271013082546,0.0,1.0
1624262910.125,0,0,0.0,0.0,1.0
1624262910.59375,0,0,0.0,0.0,1.0
1624262911.0625,0,0,32.95279733731058,0.0,1.0
1624262911.53125,0,0,0.0,0.0,1.0
1624262912.0,0,0,0.0,0.0,1.0
1624262912.46875,0,0,47.221221196216256,0.0,1.0
1624262912.9375,0,0,0.0,0.0,1.0
1624262913.40625,0,0,20.815041161824595,0.0,1.0
1624262913.875,0,0,31.7118443656034,0.0,1.0
1624262914.34375,0,0,0.0,0.0,1.0
1624262914.8125,0,0,12.17232282152177,0.0,1.0
1624262915.28125,0,0,16.540851164545536,0.0,1.0
1624262915.75,0,0,0.0,0.0,1.0
1624262916.21875,0,0,14.097035546619743,0.0,1.0
1624262916.6875,0,0,16.70833496588227,0.0,1.0
1624262917.15625,0,0,2.2166058591103424,0.0,1.0
1624262917.625,0,0,18.909018106065332,0.0,1.0
1624262918.09375,0,0,16.137110390840785,0.0,1.0
1624262918.5625,0,0,15.12712004527233,0.0,1.0
1624262919.03125,0,0,0.0,0.0,1.0
1624262919.5,0,0,23.013505512305013,0.0,1.0
1624262919.96875,0,0,21.999068207376922,0.0,1.0
1624262920.4375,0,0,0.0,0.0,1.0
1624262920.90625,0,0,22.81941810200545,0.0,1.0
1624262921.375,0,0,22.177390468196506,0.0,1.0
1624262921.84375,0,0,0.0,0.0,1.0
1624262922.3125,0,0,23.6322597041652,0.0,1.0
1624262922.78125,0,0,20.42688395694145,0.0,1.0
1624262923.25,0,0,0.0,0.0,1.0
1624262923.71875,0,0,22.08372226326706,0.0,1.0
1624262924.1875,0,0,29.925341667631173,0.0,1.0
1624262924.65625,0,0,0.0,0.0,1.0
1624262925.125,0,0,30.909632643243366,0.0,1.0
1624262925.59375,0,0,0.0,0.0,1.0
1624262926.0625,0,0,25.352017600554458,0.0,1.0
1624262926.53125,0,0,24.95035594026868,0.0,1.0
1624262927.0,0,0,0.0,0.0,1.0
1624262927.46875,0,0,30.21091432332965,0.0,1.0
1624262927.9375,0,0,0.0,0.0,1.0
1624262928.40625,0,0,30.79431162326938,0.0,1.0
1624262928.875,0,0,0.0,0.0,1.0
1624262929.34375,0,0,34.27432548590331,0.0,1.0
1624262929.8125,0,0,0.0,0.0,1.0
1624262930.28125,0,0,24.408833002811058,0.0,1.0
1624262930.75,0,0,24.77113419899879,0.0,1.0
1624262931.21875,0,0,0.0,0.0,1.0
1624262931.6875,0,0,35.31948295255042,0.0,1.0
1624262932.15625,0,0,22.460427401402477,0.0,1.0
1624262932.625,0,0,0.0,0.0,1.0
1624262933.09375,0,0,28.667690366895688,0.0,1.0
1624262933.5625,0,0,34.23481623883273,0.0,1.0
1624262934.03125,0,0,0.0,0.0,1.0
1624262934.5,0,0,36.23763005261321,0.0,1.0
1624262934.96875,0,0,0.0,0.0,1.0
1624262935.4375,0,0,0.0,0.0,1.0
1624262935.90625,0,0,28.07505475309982,0.0,1.0
1624262936.375,0,0,0.0,0.0,1.0
1624262936.84375,0,0,37.61335549598082,0.0,1.0
1624262937.3125,0,0,0.0,0.0,1.0
1624262937.78125,0,0,28.91786173122007,0.0,1.0
1624262938.25,0,0,31.90902477471731,0.0,1.0
1624262938.71875,0,0,0.0,0.0,1.0
1624262939.1875,0,0,29.60696561178419,0.0,1.0
1624262939.65625,0,0,0.0,0.0,1.0
1624262940.125,0,0,24.830382110556357,0.0,1.0
1624262940.59375,0,0,0.0,0.0,1.0
1624262941.0625,0,0,24.70104967703052,0.0,1.0
1624262941.53125,0,0,26.327665336194286,0.0,1.0
1624262942.0,0,0,16.363833782789797,0.0,1.0
1624262942.46875,0,0,26.619791953208022,0.0,1.0
1624262942.9375,0,0,0.0,0.0,1.0
1624262943.40625,0,0,24.457656038788674,0.0,1.0
1624262943.875,0,0,31.128615759346896,0.0,1.0
1624262944.34375,0,0,0.0,0.0,1.0
1624262944.8125,0,0,30.073892283848856,0.0,1.0
1624262945.28125,0,0,0.0,0.0,1.0
1624262945.75,0,0,0.0,0.0,1.0
1624262946.21875,0,0,29.398655041581666,0.0,1.0
1624262946.6875,0,0,0.0,0.0,1.0
1624262947.15625,0,0,0.0,0.0,1.0
1624262947.625,0,0,24.311800412988696,0.0,1.0
1624262948.09375,0,0,0.0,0.0,1.0
1624262948.5625,0,0,27.929757911307433,0.0,1.0
1624262949.03125,0,0,27.147031954405115,0.0,1.0
1624262949.5,0,0,0.0,0.0,1.0
1624262949.96875,0,0,26.980224154021695,0.0,1.0
1624262950.4375,0,0,26.0915430583038,0.0,1.0
1624262950.90625,0,0,0.0,0.0,1.0
1624262951.375,0,0,26.597493233595145,0.0,1.0
1624262951.84375,0,0,0.0,0.0,1.0
1624262952.3125,0,0,23.861355827774418,0.0,1.0
1624262952.78125,0,0,23.957560737245327,0.0,1.0
1624262953.25,0,0,0.0,0.0,1.0
1624262953.71875,0,0,26.008302352734542,0.0,1.0
1624262954.1875,0,0,28.494617744365925,0.0,1.0
1624262954.65625,0,0,0.0,0.0,1.0
1624262955.125,0,0,21.51620253055194,0.0,1.0
1624262955.59375,0,0,30.493126064292564,0.0,1.0
1624262956.0625,0,0,0.0,0.0,1.0
1624262956.53125,0,0,27.705308277645177,0.0,1.0
1624262957.0,0,0,0.0,0.0,1.0
1624262957.46875,0,0,0.0,0.0,1.0
1624262957.9375,0,0,30.272917874453558,0.0,1.0
1624262958.40625,0,0,0.0,0.0,1.0
1624262958.875,0,0,27.401740312894116,0.0,1.0
1624262959.34375,0,0,29.483883344177286,0.0,1.0
1624262959.8125,0,0,0.0,0.0,1.0
1624262960.28125,0,0,24.094750573291627,0.0,1.0
1624262960.75,0,0,0.0,0.0,1.0
1624262961.21875,0,0,0.0,0.0,1.0
1624262961.6875,0,0,23.234646687371058,0.0,1.0
1624262962.15625,0,0,0.0,0.0,1.0
1624262962.625,0,0,28.267574103634242,0.0,1.0
1624262963.09375,0,0,27.88099565821841,0.0,1.0
1624262963.5625,0,0,0.0,0.0,1.0
1624262964.03125,0,0,24.64370798983922,0.0,1.0
1624262964.5,0,0,28.985136145900515,0.0,1.0
1624262964.96875,0,0,0.0,0.0,1.0
1624262965.4375,0,0,30.346993412125418,0.0,1.0
1624262965.90625,0,0,0.0,0.0,1.0
1624262966.375,0,0,0.0,0.0,1.0
1624262966.84375,0,0,27.83714818739523,0.0,1.0
1624262967.3125,0,0,0.0,0.0,1.0
1624262967.78125,0,0,28.822248576128377,0.0,1.0
1624262968.25,0,0,27.46598640034183,0.0,1.0
1624262968.71875,0,0,0.0,0.0,1.0
1624262969.1875,0,0,30.03272355865854,0.0,1.0
1624262969.65625,0,0,28.34368036951218,0.0,1.0
1624262970.125,0,0,0.0,0.0,1.0
1624262970.59375,0,0,31.824827150543552,0.0,1.0
1624262971.0625,0,0,0.0,0.0,1.0
1624262971.53125,0,0,28.11170240800075,0.0,1.0
1624262972.0,0,0,29.135597821660937,0.0,1.0
1624262972.46875,0,0,0.0,0.0,1.0
1624262972.9375,0,0,26.04291294855813,0.0,1.0
1624262973.40625,0,0,26.337444278389412,0.0,1.0
1624262973.875,0,0,0.0,0.0,1.0
1624262974.34375,0,0,29.60864531534649,0.0,1.0
1624262974.8125,0,0,0.0,0.0,1.0
1624262975.28125,0,0,22.357750530763155,0.0,1.0
1624262975.75,0,0,22.01680532570025,0.0,1.0
1624262976.21875,0,0,0.0,0.0,1.0
1624262976.6875,0,0,22.667471371563764,0.0,1.0
1624262977.15625,0,0,0.0,0.0,1.0
1624262977.625,0,0,0.0,0.0,1.0
1624262978.09375,0,0,28.408189895154656,0.0,1.0
1624262978.5625,0,0,0.0,0.0,1.0
1624262979.03125,0,0,30.75678838811739,0.0,1.0
1624262979.5,0,0,33.898789108112894,0.0,1.0
1624262979.96875,0,0,0.0,0.0,1.0
1624262980.4375,0,0,24.774364406467768,0.0,1.0
1624262980.90625,0,0,25.82151245139396,0.0,1.0
1624262981.375,0,0,0.0,0.0,1.0
1624262981.84375,0,0,33.14149485440211,0.0,1.0
1624262982.3125,0,0,22.61953699481503,0.0,1.0
1624262982.78125,0,0,0.0,0.0,1.0
1624262983.25,0,0,26.78414593499932,0.0,1.0
1624262983.71875,0,0,59.94843501874425,0.0,1.0
1624262984.1875,0,0,0.0,0.0,1.0
1624262984.65625,0,0,57.55988972262608,0.0,1.0
1624262985.125,0,0,20.480883489367073,0.0,1.0
1624262985.59375,0,0,35.673694920503074,0.0,1.0
1624262986.0625,0,0,0.0,0.0,1.0
1624262986.53125,0,0,38.1746993400212,0.0,1.0
1624262987.0,0,0,0.0,0.0,1.0
1624262987.46875,0,0,37.887478011203505,0.0,1.0
1624262987.9375,0,0,32.99105638526482,0.0,1.0
1624262988.40625,0,0,0.0,0.0,1.0
1624262988.875,0,0,0.0,0.0,1.0
1624262989.34375,0,0,34.64143118610244,0.0,1.0
1624262989.8125,0,0,34.8416937803898,0.0,1.0
1624262990.28125,0,0,0.0,0.0,1.0
1624262990.75,0,0,29.230584194767,0.0,1.0
1624262991.21875,0,0,34.94527492234942,0.0,1.0
1624262991.6875,0,0,0.0,0.0,1.0
1624262992.15625,0,0,34.800215458239634,0.0,1.0
1624262992.625,0,0,36.187110588616775,0.0,1.0
1624262993.09375,0,0,0.0,0.0,1.0
1624262993.5625,0,0,31.93511364873671,0.0,1.0
1624262994.03125,0,0,31.761496933096172,0.0,1.0
1624262994.5,0,0,0.0,0.0,1.0
1624262994.96875,0,0,37.59641229376327,0.0,1.0
1624262995.4375,0,0,36.09459398510544,0.0,1.0
1624262995.90625,0,0,0.0,0.0,1.0
1624262996.375,0,0,35.40578478029469,0.0,1.0
1624262996.84375,0,0,30.17930190884633,0.0,1.0
1624262997.3125,0,0,0.0,0.0,1.0
1624262997.78125,0,0,31.79209493807402,0.0,1.0
1624262998.25,0,0,0.0,0.0,1.0
1624262998.71875,0,0,35.183223353073735,0.0,1.0
1624262999.1875,0,0,32.225826394411804,0.0,1.0
1624262999.65625,0,0,0.0,0.0,1.0
1624263000.125,0,0,31.446105641540093,0.0,1.0
1624263000.59375,0,0,0.0,0.0,1.0
1624263001.0625,0,0,31.880262256273642,0.0,1.0
1624263001.53125,0,0,30.519746389062945,0.0,1.0
1624263002.0,0,0,0.0,0.0,1.0
1624263002.46875,0,0,30.400059099741274,0.0,1.0
1624263002.9375,0,0,0.0,0.0,1.0
1624263003.40625,0,0,30.387596827735784,0.0,1.0
1624263003.875,0,0,31.945718215394074,0.0,1.0
1624263004.34375,0,0,0.0,0.0,1.0
1624263004.8125,0,0,28.975234786353926,0.0,1.0
1624263005.28125,0,0,0.0,0.0,1.0
1624263005.75,0,0,0.0,0.0,1.0
1624263006.21875,0,0,32.46976082375229,0.0,1.0
1624263006.6875,0,0,0.0,0.0,1.0
1624263007.15625,0,0,31.753970548350836,0.0,1.0
1624263007.625,0,0,0.0,0.0,1.0
1624263008.09375,0,0,28.577454398308035,0.0,1.0
1624263008.5625,0,0,31.947761019859556,0.0,1.0
1624263009.03125,0,0,0.0,0.0,1.0
1624263009.5,0,0,31.31811986755321,0.0,1.0
1624263009.96875,0,0,0.0,0.0,1.0
1624263010.4375,0,0,31.77031277694055,0.0,1.0
1624263010.90625,0,0,29.35370110853875,0.0,1.0
1624263011.375,0,0,0.0,0.0,1.0
1624263011.84375,0,0,30.82532002320166,0.0,1.0
1624263012.3125,0,0,0.0,0.0,1.0
1624263012.78125,0,0,32.406424943984526,0.0,1.0
1624263013.25,0,0,29.399143627400104,0.0,1.0
1624263013.71875,0,0,0.0,0.0,1.0
1624263014.1875,0,0,28.6310729958401,0.0,1.0
1624263014.65625,0,0,0.0,0.0,1.0
1624263015.125,0,0,32.652627481659216,0.0,1.0
1624263015.59375,0,0,0.0,0.0,1.0
1624263016.0625,0,0,29.755683523868328,0.0,1.0
1624263016.53125,0,0,28.251980940111427,0.0,1.0
1624263017.0,0,0,0.0,0.0,1.0
1624263017.46875,0,0,28.18481842681221,0.0,1.0
1624263017.9375,0,0,0.0,0.0,1.0
1624263018.40625,0,0,27.81229249542697,0.0,1.0
1624263018.875,0,0,26.401899485269567,0.0,1.0
1624263019.34375,0,0,0.0,0.0,1.0
1624263019.8125,0,0,40.32148000137576,0.0,1.0
1624263020.28125,0,0,33.11495171833798,0.0,1.0
1624263020.75,0,0,0.0,0.0,1.0
1624263021.21875,0,0,31.768703395981696,0.0,1.0
1624263021.6875,0,0,0.0,0.0,1.0
1624263022.15625,0,0,27.243226323949678,0.0,1.0
1624263022.625,0,0,28.462598883069845,0.0,1.0
1624263023.09375,0,0,0.0,0.0,1.0
1624263023.5625,0,0,25.738714965602473,0.0,1.0
1624263024.03125,0,0,0.0,0.0,1.0
1624263024.5,0,0,32.94274644997036,0.0,1.0
1624263024.96875,0,0,28.91909266382402,0.0,1.0
1624263025.4375,0,0,0.0,0.0,1.0
1624263025.90625,0,0,28.080185384841172,0.0,1.0
1624263026.375,0,0,0.0,0.0,1.0
1624263026.84375,0,0,30.853857648827866,0.0,1.0
1624263027.3125,0,0,31.84725946848016,0.0,1.0
1624263027.78125,0,0,0.0,0.0,1.0
1624263028.25,0,0,37.55613962900197,0.0,1.0
1624263028.71875,0,0,0.0,0.0,1.0
1624263029.1875,0,0,31.20527636843764,0.0,1.0
1624263029.65625,0,0,31.387938199995602,0.0,1.0
1624263030.125,0,0,0.0,0.0,1.0
1624263030.59375,0,0,33.42093367193535,0.0,1.0
1624263031.0625,0,0,28.517074258222102,0.0,1.0
1624263031.53125,0,0,0.0,0.0,1.0
1624263032.0,0,0,30.668132058992352,0.0,1.0
1624263032.46875,0,0,31.353017300152402,0.0,1.0
1624263032.9375,0,0,0.0,0.0,1.0
1624263033.40625,0,0,23.658079393720776,0.0,1.0
1624263033.875,0,0,0.0,0.0,1.0
1624263034.34375,0,0,32.0173225049466,0.0,1.0
1624263034.8125,0,0,23.782470322261435,0.0,1.0
1624263035.28125,0,0,0.0,0.0,1.0
1624263035.75,0,0,8.516863714955136,0.0,1.0
1624263036.21875,0,0,558.4904154316571,0.0,1.0
1624263036.6875,0,0,-150.79940105460022,0.0,1.0
1624263037.15625,0,0,131.1388904842904,0.0,1.0
1624263037.625,0,0,109.46726913414216,0.0,1.0
1624263038.09375,0,0,0.0,0.0,1.0
1624263038.5625,0,0,323.6403085616816,0.0,1.0
1624263039.03125,0,0,0.0,0.0,1.0
1624263039.5,0,0,161.81252074930944,0.0,1.0
1624263039.96875,0,0,0.0,0.0,1.0
1624263040.4375,0,0,4.944396358460357,0.0,1.0
1624263040.90625,0,0,165.31592330947674,0.0,1.0
1624263041.375,0,0,219.7505013712801,0.0,1.0
1624263041.84375,0,0,-14.033249913868408,0.0,1.0
1624263042.3125,0,0,351.4269861967193,0.0,1.0
1624263042.78125,0,0,264.56055421820713,0.0,1.0
1624263043.25,0,0,318.9291757773562,0.0,1.0
1624263043.71875,0,0,0.0,0.0,1.0
1624263044.1875,0,0,21.700374074588,0.0,1.0
1624263044.65625,0,0,375.4617187445866,0.0,1.0
1624263045.125,0,0,0.0,0.0,1.0
1624263045.59375,0,0,33.54329013495696,0.0,1.0
1624263046.0625,0,0,127.20984275892884,0.0,1.0
1624263046.53125,0,0,-52.64366026056639,0.0,1.0
1624263047.0,0,0,255.41610436469531,0.0,1.0
1624263047.46875,0,0,0.0,0.0,1.0
1624263047.9375,0,0,125.82385334874503,0.0,1.0
1624263048.40625,0,0,179.3389379245574,0.0,1.0
1624263048.875,0,0,129.47041940519233,0.0,1.0
1624263049.34375,0,0,81.27585345279167,0.0,1.0
1624263049.8125,0,0,45.970514049723775,0.0,1.0
1624263050.28125,0,0,342.2224853028921,0.0,1.0
1624263050.75,0,0,-57.97723351733169,0.0,1.0
1624263051.21875,0,0,86.58505981034178,0.0,1.0
1624263051.6875,0,0,134.99422013225782,0.0,1.0
1624263052.15625,0,0,194.18283450933663,0.0,1.0
1624263052.625,0,0,67.61110734563705,0.0,1.0
1624263053.09375,0,0,52.739935003388474,0.0,1.0
1624263053.5625,0,0,8.378131316419417,0.0,1.0
1624263054.03125,0,0,485.4213084199728,0.0,1.0
1624263054.5,0,0,178.9848479330585,0.0,1.0
1624263054.96875,0,0,21.061053347558044,0.0,1.0
1624263055.4375,0,0,12.048794497048426,0.0,1.0
1624263055.90625,0,0,384.313361638921,0.0,1.0
1624263056.375,0,0,90.07797799205677,0.0,1.0
1624263056.84375,0,0,57.47150846765723,0.0,1.0
1624263057.3125,0,0,0.0,0.0,1.0
1624263057.78125,0,0,445.5733283429759,0.0,1.0
1624263058.25,0,0,86.70106804369283,0.0,1.0
1624263058.71875,0,0,0.0,0.0,1.0
1624263059.1875,0,0,0.0,0.0,1.0
1624263059.65625,0,0,393.8997297211104,0.0,1.0
1624263060.125,0,0,159.5076446468494,0.0,1.0
1624263060.59375,0,0,70.89379475026438,0.0,1.0
1624263061.0625,0,0,0.0,0.0,1.0
1624263061.53125,0,0,497.8412338114958,0.0,1.0
1624263062.0,0,0,86.53721139180828,0.0,1.0
1624263062.46875,0,0,31.02164941308796,0.0,1.0
1624263062.9375,0,0,396.5806168677688,0.0,1.0
1624263063.40625,0,0,0.0,0.0,1.0
1624263063.875,0,0,85.98931995294613,0.0,1.0
1624263064.34375,0,0,89.67786438748459,0.0,1.0
1624263064.8125,0,0,287.90905486254746,0.0,1.0
1624263065.28125,0,0,0.0,0.0,1.0
1624263065.75,0,0,48.10920420784574,0.0,1.0
1624263066.21875,0,0,137.96671038325354,0.0,1.0
1624263066.6875,0,0,502.20477986040106,0.0,1.0
1624263067.15625,0,0,0.0,0.0,1.0
1624263067.625,0,0,129.01282219355392,0.0,1.0
1624263068.09375,0,0,49.530754190400465,0.0,1.0
1624263068.5625,0,0,425.65305219999374,0.0,1.0
1624263069.03125,0,0,0.0,0.0,1.0
1624263069.5,0,0,17.097412295066295,0.0,1.0
1624263069.96875,0,0,98.04012310774702,0.0,1.0
1624263070.4375,0,0,300.9807179857884,0.0,1.0
1624263070.90625,0,0,25.573136071099782,0.0,1.0
1624263071.375,0,0,61.19834682870796,0.0,1.0
1624263071.84375,0,0,95.44692797604525,0.0,1.0
1624263072.3125,0,0,262.7740480720795,0.0,1.0
1624263072.78125,0,0,0.0,0.0,1.0
1624263073.25,0,0,129.57359447567646,0.0,1.0
1624263073.71875,0,0,57.89707843321809,0.0,1.0
1624263074.1875,0,0,401.3655635701747,0.0,1.0
1624263074.65625,0,0,0.0,0.0,1.0
1624263075.125,0,0,29.345761385994685,0.0,1.0
1624263075.59375,0,0,34.65861707175404,0.0,1.0
1624263076.0625,0,0,427.89302518394777,0.0,1.0
1624263076.53125,0,0,28.262457878622197,0.0,1.0
1624263077.0,0,0,0.0,0.0,1.0
1624263077.46875,0,0,91.5359277194069,0.0,1.0
1624263077.9375,0,0,501.6650173886501,0.0,1.0
1624263078.40625,0,0,152.5439438129056,0.0,1.0
1624263078.875,0,0,0.0,0.0,1.0
1624263079.34375,0,0,-17.95576653538018,0.0,1.0
1624263079.8125,0,0,349.01906503872493,0.0,1.0
1624263080.28125,0,0,0.0,0.0,1.0
1624263080.75,0,0,68.17123506423916,0.0,1.0
1624263081.21875,0,0,28.82092395350871,0.0,1.0
1624263081.6875,0,0,297.7614285179395,0.0,1.0
1624263082.15625,0,0,0.0,0.0,1.0
1624263082.625,0,0,74.443867252865,0.0,1.0
1624263083.09375,0,0,0.9650967465834525,0.0,1.0
1624263083.5625,0,0,309.969910390418,0.0,1.0
1624263084.03125,0,0,76.40546132606438,0.0,1.0
1624263084.5,0,0,58.845975971487725,0.0,1.0
1624263084.96875,0,0,0.0,0.0,1.0
1624263085.4375,0,0,362.08784756418004,0.0,1.0
1624263085.90625,0,0,251.54583493871195,0.0,1.0
1624263086.375,0,0,0.0,0.0,1.0
1624263086.84375,0,0,81.93964586606432,0.0,1.0
1624263087.3125,0,0,364.64116158661767,0.0,1.0
1624263087.78125,0,0,127.52452582224727,0.0,1.0
1624263088.25,0,0,20.605320266983174,0.0,1.0
1624263088.71875,0,0,0.0,0.0,1.0
1624263089.1875,0,0,-9.438904990371595,0.0,1.0
1624263089.65625,0,0,606.4439858620755,0.0,1.0
1624263090.125,0,0,0.0,0.0,1.0
1624263090.59375,0,0,154.4489575620154,0.0,1.0
1624263091.0625,0,0,0.0,0.0,1.0
1624263091.53125,0,0,104.09542346283503,0.0,1.0
1624263092.0,0,0,22.382646916756133,0.0,1.0
1624263092.46875,0,0,114.33297929738312,0.0,1.0
1624263092.9375,0,0,0.0,0.0,1.0
1624263093.40625,0,0,290.20198780663924,0.0,1.0
1624263093.875,0,0,-148.55597749534232,0.0,1.0
1624263094.34375,0,0,257.71013900268696,0.0,1.0
1624263094.8125,0,0,12.11841860987016,0.0,1.0
1624263095.28125,0,0,20.791263727829673,0.0,1.0
1624263095.75,0,0,34.14917267748533,0.0,1.0
1624263096.21875,0,0,58.57140875523949,0.0,1.0
1624263096.6875,0,0,10.16786658379191,0.0,1.0
1624263097.15625,0,0,3.979340617868371,0.0,1.0
1624263097.625,0,0,-0.45894135330908964,0.0,1.0
1624263098.09375,0,0,27.294579078609676,0.0,1.0
1624263098.5625,0,0,0.0,0.0,1.0
1624263099.03125,0,0,3.8633462393313276,0.0,1.0
1624263099.5,0,0,20.46428618895222,0.0,1.0
1624263099.96875,0,0,64.52544998011808,0.0,1.0
1624263100.4375,0,0,0.0,0.0,1.0
1624263100.90625,0,0,130.06346142399542,0.0,1.0
1624263101.375,0,0,34.79390106994268,0.0,1.0
1624263101.84375,0,0,1.2443230436943875,0.0,1.0
1624263102.3125,0,0,-0.5815534127480012,0.0,1.0
1624263102.78125,0,0,13.30076683334642,0.0,1.0
1624263103.25,0,0,0.0,0.0,1.0
1624263103.71875,0,0,4.673805610327132,0.0,1.0
1624263104.1875,0,0,16.965295938330645,0.0,1.0
1624263104.65625,0,0,2.2136614430460484,0.0,1.0
1624263105.125,0,0,14.556175329649104,0.0,1.0
1624263105.59375,0,0,7.068956098986088,0.0,1.0
1624263106.0625,0,0,37.1977303610459,0.0,1.0
1624263106.53125,0,0,6.853775421407737,0.0,1.0
1624263107.0,0,0,7.218620066560799,0.0,1.0
1624263107.46875,0,0,0.0,0.0,1.0
1624263107.9375,0,0,44.274791335831736,0.0,1.0
1624263108.40625,0,0,10.095023986209373,0.0,1.0
1624263108.875,0,0,7.81009119359034,0.0,1.0
1624263109.34375,0,0,-4.889276367530701,0.0,1.0
1624263109.8125,0,0,49.53536865618717,0.0,1.0
1624263110.28125,0,0,11.549421061081011,0.0,1.0
1624263110.75,0,0,6.609952728457198,0.0,1.0
1624263111.21875,0,0,0.0,0.0,1.0
1624263111.6875,0,0,79.50119527199679,0.0,1.0
1624263112.15625,0,0,3.3152568526712134,0.0,1.0
1624263112.625,0,0,45.8894387924343,0.0,1.0
1624263113.09375,0,0,5.792823448471577,0.0,1.0
1624263113.5625,0,0,0.0,0.0,1.0
1624263114.03125,0,0,7.844943844492686,0.0,1.0
1624263114.5,0,0,17.12047134246372,0.0,1.0
1624263114.96875,0,0,106.87258326263897,0.0,1.0
1624263115.4375,0,0,0.0,0.0,1.0
1624263115.90625,0,0,22.111532840876542,0.0,1.0
1624263116.375,0,0,0.0,0.0,1.0
1624263116.84375,0,0,107.1163939786474,0.0,1.0
1624263117.3125,0,0,0.0,0.0,1.0
1624263117.78125,0,0,22.761861418283598,0.0,1.0
1624263118.25,0,0,3.6948934840945453,0.0,1.0
1624263118.71875,0,0,83.22915350737705,0.0,1.0
1624263119.1875,0,0,0.0,0.0,1.0
1624263119.65625,0,0,34.607934635932224,0.0,1.0
1624263120.125,0,0,0.0,0.0,1.0
1624263120.59375,0,0,96.44155334673079,0.0,1.0
1624263121.0625,0,0,0.0,0.0,1.0
1624263121.53125,0,0,21.577850943038985,0.0,1.0
1624263122.0,0,0,3.174645545049154,0.0,1.0
1624263122.46875,0,0,48.47442675895317,0.0,1.0
1624263122.9375,0,0,0.0,0.0,1.0
1624263123.40625,0,0,29.405053191221818,0.0,1.0
1624263123.875,0,0,0.0,0.0,1.0
1624263124.34375,0,0,0.0,0.0,1.0
1624263124.8125,0,0,0.0,0.0,1.0
1624263125.28125,0,0,13.193809379239394,0.0,1.0
1624263125.75,0,0,3.4455733610844024,0.0,1.0
1624263126.21875,0,0,93.13738016447215,0.0,1.0
1624263126.6875,0,0,0.0,0.0,1.0
1624263127.15625,0,0,19.949685270820996,0.0,1.0
1624263127.625,0,0,8.211161285892313,0.0,1.0
1624263128.09375,0,0,62.80478445559118,0.0,1.0
1624263128.5625,0,0,-16.011844331794826,0.0,1.0
1624263129.03125,0,0,9.04174568420123,0.0,1.0
1624263129.5,0,0,5.3007463066431715,0.0,1.0
1624263129.96875,0,0,36.62026160646859,0.0,1.0
1624263130.4375,0,0,0.0,0.0,1.0
1624263130.90625,0,0,21.573841650188502,0.0,1.0
1624263131.375,0,0,-4.964091338166964,0.0,1.0
1624263131.84375,0,0,51.59800172280095,0.0,1.0
1624263132.3125,0,0,0.0,0.0,1.0
1624263132.78125,0,0,15.625223573231061,0.0,1.0
1624263133.25,0,0,7.993937045488417,0.0,1.0
1624263133.71875,0,0,20.318889744862734,0.0,1.0
1624263134.1875,0,0,0.0,0.0,1.0
1624263134.65625,0,0,0.0,0.0,1.0
1624263135.125,0,0,10.400874401338205,0.0,1.0
1624263135.59375,0,0,40.9636830752438,0.0,1.0
1624263136.0625,0,0,0.0,0.0,1.0
1624263136.53125,0,0,19.576516121964197,0.0,1.0
1624263137.0,0,0,3.620134427520759,0.0,1.0
1624263137.46875,0,0,36.45871860413185,0.0,1.0
1624263137.9375,0,0,14.035711794886256,0.0,1.0
1624263138.40625,0,0,0.0,0.0,1.0
1624263138.875,0,0,-9.101348890634915,0.0,1.0
1624263139.34375,0,0,48.63486423714945,0.0,1.0
1624263139.8125,0,0,12.596189921567115,0.0,1.0
1624263140.28125,0,0,0.0,0.0,1.0
1624263140.75,0,0,6.626779477149492,0.0,1.0
1624263141.21875,0,0,28.400122995206168,0.0,1.0
1624263141.6875,0,0,-7.796372426877793,0.0,1.0
1624263142.15625,0,0,15.8237271060048,0.0,1.0
1624263142.625,0,0,-6.638104356715075,0.0,1.0
1624263143.09375,0,0,48.74396169917352,0.0,1.0
1624263143.5625,0,0,4.092760759321855,0.0,1.0
1624263144.03125,0,0,4.260368597080663,0.0,1.0
1624263144.5,0,0,18.195905268614016,0.0,1.0
1624263144.96875,0,0,0.0,0.0,1.0
1624263145.4375,0,0,19.80145855140571,0.0,1.0
1624263145.90625,0,0,15.784926007223197,0.0,1.0
1624263146.375,0,0,0.0,0.0,1.0
1624263146.84375,0,0,7.786519805325987,0.0,1.0
1624263147.3125,0,0,18.562433912636436,0.0,1.0
1624263147.78125,0,0,23.112993239840318,0.0,1.0
1624263148.25,0,0,-8.842655999504613,0.0,1.0
1624263148.71875,0,0,11.140872839239433,0.0,1.0
1624263149.1875,0,0,19.797642402551,0.0,1.0
1624263149.65625,0,0,0.0,0.0,1.0
1624263150.125,0,0,13.052842926871678,0.0,1.0
1624263150.59375,0,0,10.931848631802985,0.0,1.0
1624263151.0625,0,0,4.893722277743041,0.0,1.0
1624263151.53125,0,0,10.271900996727727,0.0,1.0
1624263152.0,0,0,16.22390931447708,0.0,1.0
1624263152.46875,0,0,0.0,0.0,1.0
1624263152.9375,0,0,14.520660667723497,0.0,1.0
1624263153.40625,0,0,4.158040686397773,0.0,1.0
1624263153.875,0,0,8.17551210752622,0.0,1.0
1624263154.34375,0,0,9.569993541315947,0.0,1.0
1624263154.8125,0,0,-2.0946791268135043,0.0,1.0
1624263155.28125,0,0,6.277437821141632,0.0,1.0
1624263155.75,0,0,4.936933073718471,0.0,1.0
1624263156.21875,0,0,12.049732378460385,0.0,1.0
1624263156.6875,0,0,8.760580320576741,0.0,1.0
1624263157.15625,0,0,0.0,0.0,1.0
1624263157.625,0,0,12.613301418526964,0.0,1.0
1624263158.09375,0,0,24.38731607525089,0.0,1.0
1624263158.5625,0,0,-3.527827996531279,0.0,1.0
1624263159.03125,0,0,-13.687659067355266,0.0,1.0
1624263159.5,0,0,0.0,0.0,1.0
1624263159.96875,0,0,170.59801650273852,0.0,1.0
1624263160.4375,0,0,0.0,0.0,1.0
1624263160.90625,0,0,286.415467548254,0.0,1.0
1624263161.375,0,0,-41.974252041491084,0.0,1.0
1624263161.84375,0,0,271.6150132523751,0.0,1.0
1624263162.3125,0,0,50.40188623106424,0.0,1.0
1624263162.78125,0,0,28.905241134704596,0.0,1.0
1624263163.25,0,0,-21.840956069092314,0.0,1.0
1624263163.71875,0,0,191.99706610888404,0.0,1.0
1624263164.1875,0,0,90.2072567347863,0.0,1.0
1624263164.65625,0,0,29.55786942519406,0.0,1.0
1624263165.125,0,0,-22.93434032129317,0.0,1.0
1624263165.59375,0,0,78.69413878532343,0.0,1.0
1624263166.0625,0,0,80.89303059004277,0.0,1.0
1624263166.53125,0,0,0.0,0.0,1.0
1624263167.0,0,0,-0.48229334948940106,0.0,1.0
1624263167.46875,0,0,88.56300494968582,0.0,1.0
1624263167.9375,0,0,51.20534012011918,0.0,1.0
1624263168.40625,0,0,33.971657297516025,0.0,1.0
1624263168.875,0,0,0.0,0.0,1.0
1624263169.34375,0,0,146.91079623146663,0.0,1.0
1624263169.8125,0,0,17.215238786700155,0.0,1.0
1624263170.28125,0,0,0.0,0.0,1.0
1624263170.75,0,0,29.801068534783454,0.0,1.0
1624263171.21875,0,0,79.01935167052014,0.0,1.0
1624263171.6875,0,0,21.98044884025823,0.0,1.0
1624263172.15625,0,0,23.28216290644316,0.0,1.0
1624263172.625,0,0,0.0,0.0,1.0
1624263173.09375,0,0,117.84529314062789,0.0,1.0
1624263173.5625,0,0,32.32601395140179,0.0,1.0
1624263174.03125,0,0,23.03235246302453,0.0,1.0
1624263174.5,0,0,0.0,0.0,1.0
1624263174.96875,0,0,78.9155784336021,0.0,1.0
1624263175.4375,0,0,17.386337096710992,0.0,1.0
1624263175.90625,0,0,28.87747788431963,0.0,1.0
1624263176.375,0,0,-10.765617507816488,0.0,1.0
1624263176.84375,0,0,46.26230976042705,0.0,1.0
1624263177.3125,0,0,35.1578146220702,0.0,1.0
1624263177.78125,0,0,0.0,0.0,1.0
1624263178.25,0,0,0.0,0.0,1.0
1624263178.71875,0,0,46.04279354944726,0.0,1.0
1624263179.1875,0,0,14.48484385213377,0.0,1.0
1624263179.65625,0,0,0.0,0.0,1.0
1624263180.125,0,0,20.78507309247105,0.0,1.0
1624263180.59375,0,0,25.56744970807766,0.0,1.0
1624263181.0625,0,0,10.021438048489403,0.0,1.0
1624263181.53125,0,0,12.892133269124434,0.0,1.0
1624263182.0,0,0,10.626359443079702,0.0,1.0
1624263182.46875,0,0,46.405481175184114,0.0,1.0
1624263182.9375,0,0,10.466975306332067,0.0,1.0
1624263183.40625,0,0,16.120166129076097,0.0,1.0
1624263183.875,0,0,38.9732431556309,0.0,1.0
1624263184.34375,0,0,0.0,0.0,1.0
1624263184.8125,0,0,17.549343766807166,0.0,1.0
1624263185.28125,0,0,12.47543120127165,0.0,1.0
1624263185.75,0,0,37.780259590729464,0.0,1.0
1624263186.21875,0,0,0.0,0.0,1.0
1624263186.6875,0,0,12.64153890828457,0.0,1.0
1624263187.15625,0,0,9.027710311506315,0.0,1.0
1624263187.625,0,0,42.9166272708021,0.0,1.0
1624263188.09375,0,0,0.0,0.0,1.0
1624263188.5625,0,0,22.220438832105852,0.0,1.0
1624263189.03125,0,0,53.41972586833697,0.0,1.0
1624263189.5,0,0,97.68868817775406,0.0,1.0
1624263189.96875,0,0,0.0,0.0,1.0
1624263190.4375,0,0,16.13560549329361,0.0,1.0
1624263190.90625,0,0,6.3784581219796035,0.0,1.0
1624263191.375,0,0,80.17012561229149,0.0,1.0
1624263191.84375,0,0,0.0,0.0,1.0
1624263192.3125,0,0,13.072335409001065,0.0,1.0
1624263192.78125,0,0,10.978892232160531,0.0,1.0
1624263193.25,0,0,43.44772362898669,0.0,1.0
1624263193.71875,0,0,0.0,0.0,1.0
1624263194.1875,0,0,0.0,0.0,1.0
1624263194.65625,0,0,13.401645786116697,0.0,1.0
1624263195.125,0,0,0.0,0.0,1.0
1624263195.59375,0,0,0.0,0.0,1.0
1624263196.0625,0,0,0.0,0.0,1.0
1624263196.53125,0,0,0.0,0.0,1.0
1624263197.0,0,0,12.332967270573128,0.0,1.0
1624263197.46875,0,0,28.9829600764737,0.0,1.0
1624263197.9375,0,0,9.901987726315536,0.0,1.0
1624263198.40625,0,0,5.552653981692408,0.0,1.0
1624263198.875,0,0,0.0,0.0,1.0
1624263199.34375,0,0,38.02263082912973,0.0,1.0
1624263199.8125,0,0,7.634154905421687,0.0,1.0
1624263200.28125,0,0,-8.47582358335361,0.0,1.0
1624263200.75,0,0,0.0,0.0,1.0
1624263201.21875,0,0,137.9180860401674,0.0,1.0
1624263201.6875,0,0,305.5583448909475,0.0,1.0
1624263202.15625,0,0,0.0,0.0,1.0
1624263202.625,0,0,386.85456843410105,0.0,1.0
1624263203.09375,0,0,0.0,0.0,1.0
1624263203.5625,0,0,0.0,0.0,1.0
1624263204.03125,0,0,36.189794532544326,0.0,1.0
1624263204.5,0,0,13.183550445025656,0.0,1.0
1624263204.96875,0,0,-3.964396320825431,0.0,1.0
1624263205.4375,0,0,9.652038721087427,0.0,1.0
1624263205.90625,0,0,14.820970319631684,0.0,1.0
1624263206.375,0,0,0.0,0.0,1.0
1624263206.84375,0,0,13.508113808129641,0.0,1.0
1624263207.3125,0,0,0.0,0.0,1.0
1624263207.78125,0,0,0.0,0.0,1.0
1624263208.25,0,0,-4.812162341287916,0.0,1.0
1624263208.71875,0,0,-7.787817979873634,0.0,1.0
1624263209.1875,0,0,168.37806608564784,0.0,1.0
1624263209.65625,0,0,187.35908480443555,0.0,1.0
1624263210.125,0,0,0.0,0.0,1.0
1624263210.59375,0,0,198.74729582970795,0.0,1.0
1624263211.0625,0,0,208.80033202110533,0.0,1.0
1624263211.53125,0,0,8.509642871722793,0.0,1.0
1624263212.0,0,0,15.228381969871633,0.0,1.0
1624263212.46875,0,0,-44.4069563602136,0.0,1.0
1624263212.9375,0,0,118.29100499976653,0.0,1.0
1624263213.40625,0,0,106.01396988754246,0.0,1.0
1624263213.875,0,0,16.50403883965775,0.0,1.0
1624263214.34375,0,0,0.0,0.0,1.0
1624263214.8125,0,0,307.50023014129124,0.0,1.0
1624263215.28125,0,0,0.0,0.0,1.0
1624263215.75,0,0,-4.116460083706901,0.0,1.0
1624263216.21875,0,0,114.56593245691849,0.0,1.0
1624263216.6875,0,0,64.56014306864633,0.0,1.0
1624263217.15625,0,0,30.12911328714336,0.0,1.0
1624263217.625,0,0,3.450064203051219,0.0,1.0
1624263218.09375,0,0,42.86828702319736,0.0,1.0
1624263218.5625,0,0,63.88444253369384,0.0,1.0
1624263219.03125,0,0,0.0,0.0,1.0
1624263219.5,0,0,7.241669141983996,0.0,1.0
1624263219.96875,0,0,46.70108594106007,0.0,1.0
1624263220.4375,0,0,25.052502835448283,0.0,1.0
1624263220.90625,0,0,3.662531412275904,0.0,1.0
1624263221.375,0,0,4.040157801210047,0.0,1.0
1624263221.84375,0,0,30.124509076313746,0.0,1.0
1624263222.3125,0,0,43.14557610676727,0.0,1.0
1624263222.78125,0,0,1.1699380282449272,0.0,1.0
1624263223.25,0,0,13.419868043051743,0.0,1.0
1624263223.71875,0,0,2.076955622247332,0.0,1.0
1624263224.1875,0,0,16.3237464043673,0.0,1.0
1624263224.65625,0,0,0.0,0.0,1.0
1624263225.125,0,0,9.572949362167915,0.0,1.0
1624263225.59375,0,0,18.27644801886455,0.0,1.0
1624263226.0625,0,0,42.081168686065595,0.0,1.0
1624263226.53125,0,0,5.932262238497532,0.0,1.0
1624263227.0,0,0,0.0,0.0,1.0
1624263227.46875,0,0,16.42259178941472,0.0,1.0
1624263227.9375,0,0,16.99580051573405,0.0,1.0
1624263228.40625,0,0,0.0,0.0,1.0
1624263228.875,0,0,7.832670557844653,0.0,1.0
1624263229.34375,0,0,0.0,0.0,1.0
1624263229.8125,0,0,15.585799655076066,0.0,1.0
1624263230.28125,0,0,0.0,0.0,1.0
1624263230.75,0,0,12.283465248389218,0.0,1.0
1624263231.21875,0,0,22.4559681963775,0.0,1.0
1624263231.6875,0,0,44.1361654936983,0.0,1.0
1624263232.15625,0,0,11.371967796532443,0.0,1.0
1624263232.625,0,0,0.0,0.0,1.0
1624263233.09375,0,0,16.81434623758287,0.0,1.0
1624263233.5625,0,0,0.0,0.0,1.0
1624263234.03125,0,0,0.0,0.0,1.0
1624263234.5,0,0,0.0,0.0,1.0
1624263234.96875,0,0,0.0,0.0,1.0
1624263235.4375,0,0,14.669057905461864,0.0,1.0
1624263235.90625,0,0,0.0,0.0,1.0
1624263236.375,0,0,9.569223482510095,0.0,1.0
1624263236.84375,0,0,0.0,0.0,1.0
1624263237.3125,0,0,30.479753558003914,0.0,1.0
1624263237.78125,0,0,13.881848918621733,0.0,1.0
1624263238.25,0,0,13.68452837778244,0.0,1.0
1624263238.71875,0,0,14.554112701889787,0.0,1.0
1624263239.1875,0,0,8.214717185547645,0.0,1.0
1624263239.65625,0,0,31.47542282347873,0.0,1.0
1624263240.125,0,0,0.0,0.0,1.0
1624263240.59375,0,0,39.0136379664304,0.0,1.0
1624263241.0625,0,0,0.0,0.0,1.0
1624263241.53125,0,0,7.949645168714801,0.0,1.0
1624263242.0,0,0,26.688762393778106,0.0,1.0
1624263242.46875,0,0,0.0,0.0,1.0
1624263242.9375,0,0,12.802652955247073,0.0,1.0
1624263243.40625,0,0,0.0,0.0,1.0
1624263243.875,0,0,12.928178054336179,0.0,1.0
1624263244.34375,0,0,0.0,0.0,1.0
1624263244.8125,0,0,15.923683935981854,0.0,1.0
1624263245.28125,0,0,33.363156595048395,0.0,1.0
1624263245.75,0,0,23.4120909675218,0.0,1.0
1624263246.21875,0,0,0.0,0.0,1.0
1624263246.6875,0,0,19.23304187879078,0.0,1.0
1624263247.15625,0,0,0.0,0.0,1.0
1624263247.625,0,0,19.65697441280188,0.0,1.0
1624263248.09375,0,0,0.0,0.0,1.0
1624263248.5625,0,0,18.40075648242413,0.0,1.0
1624263249.03125,0,0,12.788426220936634,0.0,1.0
1624263249.5,0,0,0.0,0.0,1.0
1624263249.96875,0,0,15.507006721447297,0.0,1.0
1624263250.4375,0,0,0.0,0.0,1.0
1624263250.90625,0,0,0.0,0.0,1.0
1624263251.375,0,0,21.288749065351958,0.0,1.0
1624263251.84375,0,0,0.0,0.0,1.0
1624263252.3125,0,0,15.13093045313571,0.0,1.0
1624263252.78125,0,0,0.0,0.0,1.0
1624263253.25,0,0,16.428703934965284,0.0,1.0
1624263253.71875,0,0,11.484094316102787,0.0,1.0
1624263254.1875,0,0,0.0,0.0,1.0
1624263254.65625,0,0,10.715707632218619,0.0,1.0
1624263255.125,0,0,14.959344071220919,0.0,1.0
1624263255.59375,0,0,-6.783735730623377,0.0,1.0
1624263256.0625,0,0,11.435138228858216,0.0,1.0
1624263256.53125,0,0,6.7590501748289595,0.0,1.0
1624263257.0,0,0,28.17872023780333,0.0,1.0
1624263257.46875,0,0,39.70266893854041,0.0,1.0
1624263257.9375,0,0,17.810506123989295,0.0,1.0
1624263258.40625,0,0,0.0,0.0,1.0
1624263258.875,0,0,24.24212576045645,0.0,1.0
1624263259.34375,0,0,141.2455747912292,0.0,1.0
1624263259.8125,0,0,272.5753776537707,0.0,1.0
1624263260.28125,0,0,129.0193734919557,0.0,1.0
1624263260.75,0,0,203.86969879620509,0.0,1.0
1624263261.21875,0,0,39.57823698829571,0.0,1.0
1624263261.6875,0,0,61.69990558029293,0.0,1.0
1624263262.15625,0,0,481.6098355697289,0.0,1.0
1624263262.625,0,0,149.98911820514945,0.0,1.0
1624263263.09375,0,0,0.0,0.0,1.0
1624263263.5625,0,0,0.0,0.0,1.0
1624263264.03125,0,0,124.06883024649862,0.0,1.0
1624263264.5,0,0,0.0,0.0,1.0
1624263264.96875,0,0,70.7780305016542,0.0,1.0
1624263265.4375,0,0,27.56131843598004,0.0,1.0
1624263265.90625,0,0,11.722328671454818,0.0,1.0
1624263266.375,0,0,7.998318999986818,0.0,1.0
1624263266.84375,0,0,-1.3747134323758101,0.0,1.0
1624263267.3125,0,0,13.789618183346551,0.0,1.0
1624263267.78125,0,0,3.82487934112523,0.0,1.0
1624263268.25,0,0,9.411076850376181,0.0,1.0
1624263268.71875,0,0,9.208541426498021,0.0,1.0
1624263269.1875,0,0,5.662507012484597,0.0,1.0
1624263269.65625,0,0,29.88394252720782,0.0,1.0
1624263270.125,0,0,31.28030895877568,0.0,1.0
1624263270.59375,0,0,16.574019063048283,0.0,1.0
1624263271.0625,0,0,7.083975651819322,0.0,1.0
1624263271.53125,0,0,6.056207040262546,0.0,1.0
1624263272.0,0,0,8.962725211688614,0.0,1.0
1624263272.46875,0,0,0.0,0.0,1.0
1624263272.9375,0,0,12.284586930165947,0.0,1.0
1624263273.40625,0,0,26.20354168957508,0.0,1.0
1624263273.875,0,0,25.05516773757728,0.0,1.0
1624263274.34375,0,0,27.74333536059796,0.0,1.0
1624263274.8125,0,0,13.700403066658197,0.0,1.0
1624263275.28125,0,0,0.0,0.0,1.0
1624263275.75,0,0,13.1185358553691,0.0,1.0
1624263276.21875,0,0,0.0,0.0,1.0
1624263276.6875,0,0,2.236766072280804,0.0,1.0
1624263277.15625,0,0,12.296512868069955,0.0,1.0
1624263277.625,0,0,0.0,0.0,1.0
1624263278.09375,0,0,0.0,0.0,1.0
1624263278.5625,0,0,5.309727947629355,0.0,1.0
1624263279.03125,0,0,12.746877763495862,0.0,1.0
1624263279.5,0,0,0.0,0.0,1.0
1624263279.96875,0,0,26.912980488025163,0.0,1.0
1624263280.4375,0,0,19.819573942662362,0.0,1.0
1624263280.90625,0,0,47.15996164588937,0.0,1.0
1624263281.375,0,0,32.95630246528733,0.0,1.0
1624263281.84375,0,0,12.704574351356804,0.0,1.0
1624263282.3125,0,0,27.86006099376777,0.0,1.0
1624263282.78125,0,0,-0.46638937101508265,0.0,1.0
1624263283.25,0,0,0.0,0.0,1.0
1624263283.71875,0,0,38.65255383600388,0.0,1.0
1624263284.1875,0,0,0.0,0.0,1.0
1624263284.65625,0,0,15.36641226090837,0.0,1.0
1624263285.125,0,0,0.0,0.0,1.0
1624263285.59375,0,0,45.751247548184786,0.0,1.0
1624263286.0625,0,0,-2.3421054418971523,0.0,1.0
1624263286.53125,0,0,14.029777482525427,0.0,1.0
1624263287.0,0,0,7.158185209798799,0.0,1.0
1624263287.46875,0,0,52.67003513527063,0.0,1.0
1624263287.9375,0,0,0.0,0.0,1.0
1624263288.40625,0,0,0.0,0.0,1.0
1624263288.875,0,0,-6.10095202852559,0.0,1.0
1624263289.34375,0,0,42.94659329479693,0.0,1.0
1624263289.8125,0,0,7.137257984562285,0.0,1.0
1624263290.28125,0,0,15.064954943332395,0.0,1.0
1624263290.75,0,0,0.0,0.0,1.0
1624263291.21875,0,0,64.68198330041636,0.0,1.0
1624263291.6875,0,0,18.882691987187588,0.0,1.0
1624263292.15625,0,0,36.836301139728775,0.0,1.0
1624263292.625,0,0,34.42585513462695,0.0,1.0
1624263293.09375,0,0,34.75999765702319,0.0,1.0
1624263293.5625,0,0,0.0,0.0,1.0
1624263294.03125,0,0,15.082853863132124,0.0,1.0
1624263294.5,0,0,0.0,0.0,1.0
1624263294.96875,0,0,28.79165027440645,0.0,1.0
1624263295.4375,0,0,21.34811053631757,0.0,1.0
1624263295.90625,0,0,0.0,0.0,1.0
1624263296.375,0,0,30.619948633846562,0.0,1.0
1624263296.84375,0,0,13.498758480983215,0.0,1.0
1624263297.3125,0,0,0.0,0.0,1.0
1624263297.78125,0,0,8.156687729379422,0.0,1.0
1624263298.25,0,0,40.12884963735565,0.0,1.0
1624263298.71875,0,0,-10.998887987025999,0.0,1.0
1624263299.1875,0,0,13.558307273198386,0.0,1.0
1624263299.65625,0,0,0.0,0.0,1.0
1624263300.125,0,0,57.62799495922481,0.0,1.0
1624263300.59375,0,0,0.0,0.0,1.0
1624263301.0625,0,0,9.919614339737164,0.0,1.0
1624263301.53125,0,0,9.289020774396043,0.0,1.0
1624263302.0,0,0,17.10132341291471,0.0,1.0
1624263302.46875,0,0,6.167667124965125,0.0,1.0
1624263302.9375,0,0,5.913202881817954,0.0,1.0
1624263303.40625,0,0,5.8594441904615335,0.0,1.0
1624263303.875,0,0,5.346211568131236,0.0,1.0
1624263304.34375,0,0,0.0,0.0,1.0
1624263304.8125,0,0,11.74003496190324,0.0,1.0
1624263305.28125,0,0,6.607669639832054,0.0,1.0
1624263305.75,0,0,5.008218012218629,0.0,1.0
1624263306.21875,0,0,4.715855816616396,0.0,1.0
1624263306.6875,0,0,10.908091624131865,0.0,1.0
1624263307.15625,0,0,8.210132068031164,0.0,1.0
1624263307.625,0,0,2.801821598864782,0.0,1.0
1624263308.09375,0,0,0.0,0.0,1.0
1624263308.5625,0,0,12.783852993677268,0.0,1.0
1624263309.03125,0,0,12.751946618270667,0.0,1.0
1624263309.5,0,0,0.0,0.0,1.0
1624263309.96875,0,0,12.599326798293875,0.0,1.0
1624263310.4375,0,0,30.708398193401493,0.0,1.0
1624263310.90625,0,0,31.384344807970386,0.0,1.0
1624263311.375,0,0,21.522888395370707,0.0,1.0
1624263311.84375,0,0,0.0,0.0,1.0
1624263312.3125,0,0,19.08464247571855,0.0,1.0
1624263312.78125,0,0,0.0,0.0,1.0
1624263313.25,0,0,50.513324397762005,0.0,1.0
1624263313.71875,0,0,14.925907607555112,0.0,1.0
1624263314.1875,0,0,0.0,0.0,1.0
1624263314.65625,0,0,15.29486389311518,0.0,1.0
1624263315.125,0,0,13.890179669883095,0.0,1.0
1624263315.59375,0,0,0.0,0.0,1.0
1624263316.0625,0,0,9.799656144124551,0.0,1.0
1624263316.53125,0,0,0.0,0.0,1.0
1624263317.0,0,0,18.2679455389717,0.0,1.0
1624263317.46875,0,0,9.31258718869716,0.0,1.0
1624263317.9375,0,0,8.113378252288006,0.0,1.0
1624263318.40625,0,0,14.603628839562692,0.0,1.0
1624263318.875,0,0,0.0,0.0,1.0
1624263319.34375,0,0,8.944855508185597,0.0,1.0
1624263319.8125,0,0,11.422713680897845,0.0,1.0
1624263320.28125,0,0,7.782356459747914,0.0,1.0
1624263320.75,0,0,14.610374946718942,0.0,1.0
1624263321.21875,0,0,0.0,0.0,1.0
1624263321.6875,0,0,35.44594058168875,0.0,1.0
1624263322.15625,0,0,15.459988150338058,0.0,1.0
1624263322.625,0,0,-18.20636475234497,0.0,1.0
1624263323.09375,0,0,49.33521542513486,0.0,1.0
1624263323.5625,0,0,50.15371238877205,0.0,1.0
1624263324.03125,0,0,0.0,0.0,1.0
1624263324.5,0,0,-22.274171303632404,0.0,1.0
1624263324.96875,0,0,169.2286143753307,0.0,1.0
1624263325.4375,0,0,-27.862257910951225,0.0,1.0
1624263325.90625,0,0,74.48424282399856,0.0,1.0
1624263326.375,0,0,-1.8330006212097063,0.0,1.0
1624263326.84375,0,0,12.451353679499329,0.0,1.0
1624263327.3125,0,0,0.0,0.0,1.0
1624263327.78125,0,0,127.08473049531531,0.0,1.0
1624263328.25,0,0,82.43501551724647,0.0,1.0
1624263328.71875,0,0,149.39488483640326,0.0,1.0
1624263329.1875,0,0,0.0,0.0,1.0
1624263329.65625,0,0,-3.8132491253158176,0.0,1.0
1624263330.125,0,0,43.52693712946095,0.0,1.0
1624263330.59375,0,0,226.60363694284266,0.0,1.0
1624263331.0625,0,0,186.52846318058795,0.0,1.0
1624263331.53125,0,0,132.8329367384646,0.0,1.0
1624263332.0,0,0,796.9060173888233,0.0,1.0
1624263332.46875,0,0,-83.45311253691779,0.0,1.0
1624263332.9375,0,0,7.048347315203319,0.0,1.0
1624263333.40625,0,0,285.427464036892,0.0,1.0
1624263333.875,0,0,86.19566623416215,0.0,1.0
1624263334.34375,0,0,-27.786627282776283,0.0,1.0
1624263334.8125,0,0,-25.946762711094173,0.0,1.0
1624263335.28125,0,0,0.0,0.0,1.0
1624263335.75,0,0,742.4922464225988,0.0,1.0
1624263336.21875,0,0,0.0,0.0,1.0
1624263336.6875,0,0,168.27828998130644,0.0,1.0
1624263337.15625,0,0,90.50459482326032,0.0,1.0
1624263337.625,0,0,23.250530656901155,0.0,1.0
1624263338.09375,0,0,3.507903929177725,0.0,1.0
1624263338.5625,0,0,86.00096340171648,0.0,1.0
1624263339.03125,0,0,0.0,0.0,1.0
1624263339.5,0,0,36.04398527941186,0.0,1.0
1624263339.96875,0,0,61.66776839885847,0.0,1.0
1624263340.4375,0,0,70.43416467833354,0.0,1.0
1624263340.90625,0,0,330.73230998941347,0.0,1.0
1624263341.375,0,0,-10.714634298535117,0.0,1.0
1624263341.84375,0,0,0.0,0.0,1.0
1624263342.3125,0,0,486.85749321235335,0.0,1.0
1624263342.78125,0,0,216.24536596478373,0.0,1.0
1624263343.25,0,0,124.4498833417603,0.0,1.0
1624263343.71875,0,0,0.0,0.0,1.0
1624263344.1875,0,0,384.29735773003404,0.0,1.0
1624263344.65625,0,0,213.64130242745833,0.0,1.0
1624263345.125,0,0,244.49541647477392,0.0,1.0
1624263345.59375,0,0,375.9331735736248,0.0,1.0
1624263346.0625,0,0,0.0,0.0,1.0
1624263346.53125,0,0,256.442452952642,0.0,1.0
1624263347.0,0,0,161.19008048447145,0.0,1.0
1624263347.46875,0,0,0.0,0.0,1.0
1624263347.9375,0,0,431.37094778550016,0.0,1.0
1624263348.40625,0,0,282.53814769192195,0.0,1.0
1624263348.875,0,0,227.85998735004563,0.0,1.0
1624263349.34375,0,0,0.0,0.0,1.0
1624263349.8125,0,0,328.48636344234245,0.0,1.0
1624263350.28125,0,0,458.67687644892465,0.0,1.0
1624263350.75,0,0,43.135216048008786,0.0,1.0
1624263351.21875,0,0,0.0,0.0,1.0
1624263351.6875,0,0,321.72938232748305,0.0,1.0
1624263352.15625,0,0,227.1569014774304,0.0,1.0
1624263352.625,0,0,240.91574751153266,0.0,1.0
1624263353.09375,0,0,0.0,0.0,1.0
1624263353.5625,0,0,478.9064131011287,0.0,1.0
1624263354.03125,0,0,282.33071553830104,0.0,1.0
1624263354.5,0,0,0.0,0.0,1.0
1624263354.96875,0,0,0.0,0.0,1.0
1624263355.4375,0,0,171.47391978140456,0.0,1.0
1624263355.90625,0,0,336.0751149496663,0.0,1.0
1624263356.375,0,0,72.88990161763644,0.0,1.0
1624263356.84375,0,0,291.18480289165996,0.0,1.0
1624263357.3125,0,0,0.0,0.0,1.0
1624263357.78125,0,0,405.3297901390989,0.0,1.0
1624263358.25,0,0,272.48440790307404,0.0,1.0
1624263358.71875,0,0,0.0,0.0,1.0
1624263359.1875,0,0,334.1571751365636,0.0,1.0
1624263359.65625,0,0,250.25750686227136,0.0,1.0
1624263360.125,0,0,72.05824413797647,0.0,1.0
1624263360.59375,0,0,0.0,0.0,1.0
1624263361.0625,0,0,0.0,0.0,1.0
1624263361.53125,0,0,399.13949259333236,0.0,1.0
1624263362.0,0,0,-86.25914812232642,0.0,1.0
1624263362.46875,0,0,254.01986039082877,0.0,1.0
1624263362.9375,0,0,104.56971803015662,0.0,1.0
1624263363.40625,0,0,0.0,0.0,1.0
1624263363.875,0,0,451.37572782146304,0.0,1.0
1624263364.34375,0,0,-126.68147188533527,0.0,1.0
1624263364.8125,0,0,48.20346389168572,0.0,1.0
1624263365.28125,0,0,469.2296905044241,0.0,1.0
1624263365.75,0,0,-26.440930402689958,0.0,1.0
1624263366.21875,0,0,702.283392052465,0.0,1.0
1624263366.6875,0,0,0.0,0.0,1.0
1624263367.15625,0,0,172.4530752907176,0.0,1.0
1624263367.625,0,0,153.96475125160825,0.0,1.0
1624263368.09375,0,0,0.0,0.0,1.0
1624263368.5625,0,0,0.0,0.0,1.0
1624263369.03125,0,0,224.82081145793185,0.0,1.0
1624263369.5,0,0,328.02297892288226,0.0,1.0
1624263369.96875,0,0,0.0,0.0,1.0
1624263370.4375,0,0,234.55155046756465,0.0,1.0
1624263370.90625,0,0,365.3644431739433,0.0,1.0
1624263371.375,0,0,93.76010208281497,0.0,1.0
1624263371.84375,0,0,26.879395856427056,0.0,1.0
1624263372.3125,0,0,0.0,0.0,1.0
1624263372.78125,0,0,180.06438140702056,0.0,1.0
1624263373.25,0,0,16.175915566509016,0.0,1.0
1624263373.71875,0,0,42.4718741306779,0.0,1.0
1624263374.1875,0,0,0.0,0.0,1.0
1624263374.65625,0,0,-40.255903407601764,0.0,1.0
1624263375.125,0,0,-16.91639355589137,0.0,1.0
1624263375.59375,0,0,211.15996610287684,0.0,1.0
1624263376.0625,0,0,51.716081259429764,0.0,1.0
1624263376.53125,0,0,53.245531774401535,0.0,1.0
1624263377.0,0,0,68.82044942626607,0.0,1.0
1624263377.46875,0,0,34.582801661931626,0.0,1.0
1624263377.9375,0,0,65.95760621007251,0.0,1.0
1624263378.40625,0,0,143.10187951423438,0.0,1.0
1624263378.875,0,0,3.5083421431081345,0.0,1.0
1624263379.34375,0,0,81.56958950475179,0.0,1.0
1624263379.8125,0,0,50.2935184077857,0.0,1.0
1624263380.28125,0,0,125.91507508949377,0.0,1.0
1624263380.75,0,0,-35.65088337266425,0.0,1.0
1624263381.21875,0,0,0.0,0.0,1.0
1624263381.6875,0,0,164.42672527123528,0.0,1.0
1624263382.15625,0,0,185.27727007004384,0.0,1.0
1624263382.625,0,0,249.58039422384448,0.0,1.0
1624263383.09375,0,0,170.9393246460677,0.0,2.0
1624263383.5625,0,0,0.0,0.0,2.0
1624263384.03125,0,0,236.74196649638233,0.0,2.0
1624263384.5,0,0,12.40549332723402,0.0,2.0
1624263384.96875,0,0,287.9800296774367,0.0,2.0
1624263385.4375,0,0,-5.087729099663107,0.0,2.0
1624263385.90625,0,0,111.04634001575866,0.0,2.0
1624263386.375,0,0,-9.474091567495526,0.0,2.0
1624263386.84375,0,0,154.368927167116,0.0,2.0
1624263387.3125,0,0,699.5180822856067,0.0,2.0
1624263387.78125,0,0,43.23014997445741,0.0,2.0
1624263388.25,0,0,90.18423459442812,0.0,2.0
1624263388.71875,0,0,118.51905526322417,0.0,2.0
1624263389.1875,0,0,119.42373722986784,0.0,2.0
1624263389.65625,0,0,81.17280085063267,0.0,2.0
1624263390.125,0,0,0.0,0.0,2.0
1624263390.59375,0,0,655.810044884542,0.0,2.0
1624263391.0625,0,0,0.0,0.0,2.0
1624263391.53125,0,0,17.405997135655653,0.0,2.0
1624263392.0,0,0,418.24855065915233,0.0,2.0
1624263392.46875,0,0,251.54797822730112,0.0,2.0
1624263392.9375,0,0,10.760267082511138,0.0,2.0
1624263393.40625,0,0,-51.88513335230943,0.0,2.0
1624263393.875,0,0,135.4034887492866,0.0,2.0
1624263394.34375,0,0,169.2722409148181,0.0,2.0
1624263394.8125,0,0,79.56056476457294,0.0,2.0
1624263395.28125,0,0,0.0,0.0,2.0
1624263395.75,0,0,94.50437912964055,0.0,2.0
1624263396.21875,0,0,33.3612662422047,0.0,2.0
1624263396.6875,0,0,2.573063693078358,0.0,2.0
1624263397.15625,0,0,45.42824256717309,0.0,2.0
1624263397.625,0,0,23.093260863666735,0.0,2.0
1624263398.09375,0,0,10.550386789670867,0.0,2.0
1624263398.5625,0,0,8.169717602619519,0.0,2.0
1624263399.03125,0,0,-5.15528055687952,0.0,2.0
1624263399.5,0,0,0.0,0.0,2.0
1624263399.96875,0,0,0.0,0.0,2.0
1624263400.4375,0,0,223.1306524174867,0.0,2.0
1624263400.90625,0,0,274.5493778087929,0.0,2.0
1624263401.375,0,0,0.0,0.0,2.0
1624263401.84375,0,0,96.70052311770412,0.0,2.0
1624263402.3125,0,0,75.9184755631928,0.0,2.0
1624263402.78125,0,0,28.01170948755124,0.0,2.0
1624263403.25,0,0,137.09142681937524,0.0,2.0
1624263403.71875,0,0,56.33940700386739,0.0,2.0
1624263404.1875,0,0,0.0,0.0,2.0
1624263404.65625,0,0,8.485820016760005,0.0,2.0
1624263405.125,0,0,21.896535689764587,0.0,2.0
1624263405.59375,0,0,12.978605356118381,0.0,2.0
1624263406.0625,0,0,12.513301970181624,0.0,2.0
1624263406.53125,0,0,0.0,0.0,2.0
1624263407.0,0,0,14.739329778977616,0.0,2.0
1624263407.46875,0,0,23.4514163440317,0.0,2.0
1624263407.9375,0,0,0.0,0.0,2.0
1624263408.40625,0,0,11.879133654974542,0.0,2.0
1624263408.875,0,0,0.0,0.0,2.0
1624263409.34375,0,0,43.14653906693818,0.0,2.0
1624263409.8125,0,0,177.98446107245857,0.0,2.0
1624263410.28125,0,0,-36.938588883861065,0.0,2.0
1624263410.75,0,0,481.63187881539915,0.0,2.0
1624263411.21875,0,0,0.0,0.0,2.0
1624263411.6875,0,0,374.5740529607249,0.0,2.0
1624263412.15625,0,0,159.44990858857952,0.0,2.0
1624263412.625,0,0,0.0,0.0,2.0
1624263413.09375,0,0,58.91663205013396,0.0,2.0
1624263413.5625,0,0,0.0,0.0,2.0
1624263414.03125,0,0,211.5356811572706,0.0,2.0
1624263414.5,0,0,0.0,0.0,2.0
1624263414.96875,0,0,107.36716325921458,0.0,2.0
1624263415.4375,0,0,0.0,0.0,2.0
1624263415.90625,0,0,0.0,0.0,2.0
1624263416.375,0,0,-3.8291982388776193,0.0,2.0
1624263416.84375,0,0,19.27827351393159,0.0,2.0
1624263417.3125,0,0,0.0,0.0,2.0
1624263417.78125,0,0,0.0,0.0,2.0
1624263418.25,0,0,11.157042604046707,0.0,2.0
1624263418.71875,0,0,0.0,0.0,2.0
1624263419.1875,0,0,15.359175052671986,0.0,2.0
1624263419.65625,0,0,0.0,0.0,2.0
1624263420.125,0,0,0.0,0.0,2.0
1624263420.59375,0,0,10.953699526209709,0.0,2.0
1624263421.0625,0,0,0.0,0.0,2.0
1624263421.53125,0,0,11.538230863078603,0.0,2.0
1624263422.0,0,0,9.335002094661961,0.0,2.0
1624263422.46875,0,0,3.949912893849545,0.0,2.0
1624263422.9375,0,0,9.786518363119635,0.0,2.0
1624263423.40625,0,0,11.3255366748038,0.0,2.0
1624263423.875,0,0,0.0,0.0,2.0
1624263424.34375,0,0,18.714069889681024,0.0,2.0
1624263424.8125,0,0,27.060477062974325,0.0,2.0
1624263425.28125,0,0,0.0,0.0,2.0
1624263425.75,0,0,9.243196552500148,0.0,2.0
1624263426.21875,0,0,0.0,0.0,2.0
1624263426.6875,0,0,13.723925406632516,0.0,2.0
1624263427.15625,0,0,0.0,0.0,2.0
1624263427.625,0,0,11.258426259840748,0.0,2.0
1624263428.09375,0,0,10.878801515918061,0.0,2.0
1624263428.5625,0,0,9.301927557390163,0.0,2.0
1624263429.03125,0,0,14.793876383551797,0.0,2.0
1624263429.5,0,0,0.0,0.0,2.0
1624263429.96875,0,0,19.909048307299788,0.0,2.0
1624263430.4375,0,0,9.816586237590629,0.0,2.0
1624263430.90625,0,0,5.842177470636902,0.0,2.0
1624263431.375,0,0,8.916217441312888,0.0,2.0
1624263431.84375,0,0,0.0,0.0,2.0
1624263432.3125,0,0,15.140009624365048,0.0,2.0
1624263432.78125,0,0,19.52346618957543,0.0,2.0
1624263433.25,0,0,27.056321650217892,0.0,2.0
1624263433.71875,0,0,23.391059210274925,0.0,2.0
1624263434.1875,0,0,0.0,0.0,2.0
1624263434.65625,0,0,15.402007743764184,0.0,2.0
1624263435.125,0,0,20.982335096701487,0.0,2.0
1624263435.59375,0,0,0.0,0.0,2.0
1624263436.0625,0,0,18.02637220632173,0.0,2.0
1624263436.53125,0,0,0.0,0.0,2.0
1624263437.0,0,0,13.779435564882146,0.0,2.0
1624263437.46875,0,0,-0.10490833845442137,0.0,2.0
1624263437.9375,0,0,0.9819871652451778,0.0,2.0
1624263438.40625,0,0,17.782404165506374,0.0,2.0
1624263438.875,0,0,0.0,0.0,2.0
1624263439.34375,0,0,16.18655913564296,0.0,2.0
1624263439.8125,0,0,0.0,0.0,2.0
1624263440.28125,0,0,0.0,0.0,2.0
1624263440.75,0,0,11.119078603992815,0.0,2.0
1624263441.21875,0,0,0.0,0.0,2.0
1624263441.6875,0,0,18.937926638087852,0.0,2.0
1624263442.15625,0,0,17.4961189626238,0.0,2.0
1624263442.625,0,0,0.0,0.0,2.0
1624263443.09375,0,0,14.372018389909444,0.0,2.0
1624263443.5625,0,0,11.162583886567829,0.0,2.0
1624263444.03125,0,0,0.0,0.0,2.0
1624263444.5,0,0,16.331545916921943,0.0,2.0
1624263444.96875,0,0,0.0,0.0,2.0
1624263445.4375,0,0,16.675237930535673,0.0,2.0
1624263445.90625,0,0,13.934730336900108,0.0,2.0
1624263446.375,0,0,0.0,0.0,2.0
1624263446.84375,0,0,15.588403194172635,0.0,2.0
1624263447.3125,0,0,16.704544872475918,0.0,2.0
1624263447.78125,0,0,0.0,0.0,2.0
1624263448.25,0,0,18.303457779767182,0.0,2.0
1624263448.71875,0,0,16.2810751362696,0.0,2.0
1624263449.1875,0,0,0.0,0.0,2.0
1624263449.65625,0,0,17.128275355739426,0.0,2.0
1624263450.125,0,0,0.0,0.0,2.0
1624263450.59375,0,0,20.559751003687758,0.0,2.0
1624263451.0625,0,0,23.25818966190801,0.0,2.0
1624263451.53125,0,0,0.0,0.0,2.0
1624263452.0,0,0,17.58746800750437,0.0,2.0
1624263452.46875,0,0,0.0,0.0,2.0
1624263452.9375,0,0,18.795672728070166,0.0,2.0
1624263453.40625,0,0,19.25296214470997,0.0,2.0
1624263453.875,0,0,13.134331813003744,0.0,2.0
1624263454.34375,0,0,18.852233297124833,0.0,2.0
1624263454.8125,0,0,11.463704883526473,0.0,2.0
1624263455.28125,0,0,15.810813796941568,0.0,2.0
1624263455.75,0,0,0.0,0.0,2.0
1624263456.21875,0,0,17.093789413693724,0.0,2.0
1624263456.6875,0,0,18.65322063028099,0.0,2.0
1624263457.15625,0,0,0.0,0.0,2.0
1624263457.625,0,0,19.52973932321586,0.0,2.0
1624263458.09375,0,0,0.0,0.0,2.0
1624263458.5625,0,0,16.766710300621003,0.0,2.0
1624263459.03125,0,0,35.69432549177512,0.0,2.0
1624263459.5,0,0,0.0,0.0,2.0
1624263459.96875,0,0,14.849288560327752,0.0,2.0
1624263460.4375,0,0,70.0999640674063,0.0,2.0
1624263460.90625,0,0,0.0,0.0,2.0
1624263461.375,0,0,0.0,0.0,2.0
1624263461.84375,0,0,0.0,0.0,2.0
1624263462.3125,0,0,52.738086395173525,0.0,2.0
1624263462.78125,0,0,28.42206980410403,0.0,2.0
1624263463.25,0,0,0.0,0.0,2.0
1624263463.71875,0,0,11.950177576202488,0.0,2.0
1624263464.1875,0,0,24.024226572093966,0.0,2.0
1624263464.65625,0,0,0.0,0.0,2.0
1624263465.125,0,0,23.514159649212413,0.0,2.0
1624263465.59375,0,0,0.0,0.0,2.0
1624263466.0625,0,0,17.687655161643356,0.0,2.0
1624263466.53125,0,0,16.254963242449158,0.0,2.0
1624263467.0,0,0,0.0,0.0,2.0
1624263467.46875,0,0,16.788478509920672,0.0,2.0
1624263467.9375,0,0,0.0,0.0,2.0
1624263468.40625,0,0,13.672806613168644,0.0,2.0
1624263468.875,0,0,26.041673692234124,0.0,2.0
1624263469.34375,0,0,0.0,0.0,2.0
1624263469.8125,0,0,-19.33308875409557,0.0,2.0
1624263470.28125,0,0,0.0,0.0,2.0
1624263470.75,0,0,29.415756688468193,0.0,2.0
1624263471.21875,0,0,70.1412899371249,0.0,2.0
1624263471.6875,0,0,229.22622770225303,0.0,2.0
1624263472.15625,0,0,0.0,0.0,2.0
1624263472.625,0,0,130.35892891300475,0.0,2.0
1624263473.09375,0,0,255.71137991117928,0.0,2.0
1624263473.5625,0,0,162.873094304886,0.0,2.0
1624263474.03125,0,0,0.0,0.0,2.0
1624263474.5,0,0,504.28242465945203,0.0,2.0
1624263474.96875,0,0,80.97849797252637,0.0,2.0
1624263475.4375,0,0,539.7978429073108,0.0,2.0
1624263475.90625,0,0,0.0,0.0,2.0
1624263476.375,0,0,170.4998470480047,0.0,2.0
1624263476.84375,0,0,38.45977565856905,0.0,2.0
1624263477.3125,0,0,110.22709422018002,0.0,2.0
1624263477.78125,0,0,-37.00856534952321,0.0,2.0
1624263478.25,0,0,156.04211875694514,0.0,2.0
1624263478.71875,0,0,61.93742576495289,0.0,2.0
1624263479.1875,0,0,8.849126194743981,0.0,2.0
1624263479.65625,0,0,115.04158370249799,0.0,2.0
1624263480.125,0,0,0.0,0.0,2.0
1624263480.59375,0,0,13.446392624881836,0.0,2.0
1624263481.0625,0,0,0.0,0.0,2.0
1624263481.53125,0,0,66.90958092368,0.0,2.0
1624263482.0,0,0,129.64251985502375,0.0,2.0
1624263482.46875,0,0,158.31159711883865,0.0,2.0
1624263482.9375,0,0,0.0,0.0,2.0
1624263483.40625,0,0,633.0127169357318,0.0,2.0
1624263483.875,0,0,134.94169524022013,0.0,2.0
1624263484.34375,0,0,125.28551521322784,0.0,2.0
1624263484.8125,0,0,0.0,0.0,2.0
1624263485.28125,0,0,302.2441853500503,0.0,2.0
1624263485.75,0,0,0.0,0.0,2.0
1624263486.21875,0,0,346.69237602823523,0.0,2.0
1624263486.6875,0,0,0.0,0.0,2.0
1624263487.15625,0,0,32.875147755937824,0.0,2.0
1624263487.625,0,0,54.875479865974505,0.0,2.0
1624263488.09375,0,0,0.0,0.0,2.0
1624263488.5625,0,0,28.6544672331688,0.0,2.0
1624263489.03125,0,0,9.940089073671883,0.0,2.0
1624263489.5,0,0,31.574169235843932,0.0,2.0
1624263489.96875,0,0,0.0,0.0,2.0
1624263490.4375,0,0,129.125504475969,0.0,2.0
1624263490.90625,0,0,189.99047545731003,0.0,2.0
1624263491.375,0,0,0.0,0.0,2.0
1624263491.84375,0,0,100.28882601651418,0.0,2.0
1624263492.3125,0,0,34.71076971140985,0.0,2.0
1624263492.78125,0,0,21.88426510432365,0.0,2.0
1624263493.25,0,0,61.69566591575942,0.0,2.0
1624263493.71875,0,0,85.78985315782353,0.0,2.0
1624263494.1875,0,0,85.52148903488315,0.0,2.0
1624263494.65625,0,0,138.17107348062515,0.0,2.0
1624263495.125,0,0,58.27502127285311,0.0,2.0
1624263495.59375,0,0,103.58676079786208,0.0,2.0
1624263496.0625,0,0,0.0,0.0,2.0
1624263496.53125,0,0,101.12847007160876,0.0,2.0
1624263497.0,0,0,55.61638529081505,0.0,2.0
1624263497.46875,0,0,73.6844410176667,0.0,2.0
1624263497.9375,0,0,45.211632396868524,0.0,2.0
1624263498.40625,0,0,96.49386087779428,0.0,2.0
1624263498.875,0,0,-25.39471535295167,0.0,2.0
1624263499.34375,0,0,167.73751321100045,0.0,2.0
1624263499.8125,0,0,94.8396225986663,0.0,2.0
1624263500.28125,0,0,519.1804282654392,0.0,2.0
1624263500.75,0,0,0.0,0.0,2.0
1624263501.21875,0,0,767.0726953975767,0.0,2.0
1624263501.6875,0,0,-226.7001754889312,0.0,2.0
1624263502.15625,0,0,0.0,0.0,2.0
1624263502.625,0,0,806.5105986031261,0.0,2.0
1624263503.09375,0,0,95.8438343121459,0.0,2.0
1624263503.5625,0,0,168.38611748111785,0.0,2.0
1624263504.03125,0,0,217.2326214801308,0.0,2.0
1624263504.5,0,0,113.9406237634445,0.0,2.0
1624263504.96875,0,0,186.86778736050204,0.0,2.0
1624263505.4375,0,0,76.91407145365149,0.0,2.0
1624263505.90625,0,0,17.33113954788602,0.0,2.0
1624263506.375,0,0,113.49858716493698,0.0,2.0
1624263506.84375,0,0,42.188622613414374,0.0,2.0
1624263507.3125,0,0,38.84196391068086,0.0,2.0
1624263507.78125,0,0,0.0,0.0,2.0
1624263508.25,0,0,-66.5231731116789,0.0,2.0
1624263508.71875,0,0,308.7598893230524,0.0,2.0
1624263509.1875,0,0,144.53788749946455,0.0,2.0
1624263509.65625,0,0,0.0,0.0,2.0
1624263510.125,0,0,194.95021844629574,0.0,2.0
1624263510.59375,0,0,96.94547185464799,0.0,2.0
1624263511.0625,0,0,-15.768149156323373,0.0,2.0
1624263511.53125,0,0,55.565127692771426,0.0,2.0
1624263512.0,0,0,29.240365054230956,0.0,2.0
1624263512.46875,0,0,37.45248825428252,0.0,2.0
1624263512.9375,0,0,0.0,0.0,2.0
1624263513.40625,0,0,22.750270178288346,0.0,2.0
1624263513.875,0,0,0.0,0.0,2.0
1624263514.34375,0,0,12.574230905776778,0.0,2.0
1624263514.8125,0,0,5.275195983441822,0.0,2.0
1624263515.28125,0,0,0.0,0.0,2.0
1624263515.75,0,0,37.38205565216927,0.0,2.0
1624263516.21875,0,0,0.0,0.0,2.0
1624263516.6875,0,0,4.555561551281321,0.0,2.0
1624263517.15625,0,0,15.856280519947331,0.0,2.0
1624263517.625,0,0,9.54719469308144,0.0,2.0
1624263518.09375,0,0,0.0,0.0,2.0
1624263518.5625,0,0,-4.697771633288237,0.0,2.0
1624263519.03125,0,0,60.78425831868422,0.0,2.0
1624263519.5,0,0,88.75401755882362,0.0,2.0
1624263519.96875,0,0,181.12917843355117,0.0,2.0
1624263520.4375,0,0,0.0,0.0,2.0
1624263520.90625,0,0,4.597634834253773,0.0,2.0
1624263521.375,0,0,87.24577538076129,0.0,2.0
1624263521.84375,0,0,68.88729618227424,0.0,2.0
1624263522.3125,0,0,4.553860807941621,0.0,2.0
1624263522.78125,0,0,64.11113676139283,0.0,2.0
1624263523.25,0,0,13.59932872516475,0.0,2.0
1624263523.71875,0,0,43.61491975656685,0.0,2.0
1624263524.1875,0,0,255.31282146966157,0.0,2.0
1624263524.65625,0,0,0.0,0.0,2.0
1624263525.125,0,0,43.47967163458702,0.0,2.0
1624263525.59375,0,0,22.576116527723837,0.0,2.0
1624263526.0625,0,0,21.996480405107736,0.0,2.0
1624263526.53125,0,0,0.0,0.0,2.0
1624263527.0,0,0,10.044963509371431,0.0,2.0
1624263527.46875,0,0,-9.319267335240223,0.0,2.0
1624263527.9375,0,0,0.0,0.0,2.0
1624263528.40625,0,0,76.38461024502215,0.0,2.0
1624263528.875,0,0,143.55028113163962,0.0,2.0
1624263529.34375,0,0,129.03356854168825,0.0,2.0
1624263529.8125,0,0,36.7564146560456,0.0,2.0
1624263530.28125,0,0,56.86880398074553,0.0,2.0
1624263530.75,0,0,8.641775442530772,0.0,2.0
1624263531.21875,0,0,4.210484352580993,0.0,2.0
1624263531.6875,0,0,8.47271911402645,0.0,2.0
1624263532.15625,0,0,4.72084591823137,0.0,2.0
1624263532.625,0,0,29.72673479760578,0.0,2.0
1624263533.09375,0,0,58.543411163449804,0.0,2.0
1624263533.5625,0,0,103.72460934177599,0.0,2.0
1624263534.03125,0,0,6.744576511731728,0.0,2.0
1624263534.5,0,0,22.496098863930403,0.0,2.0
1624263534.96875,0,0,0.0,0.0,2.0
1624263535.4375,0,0,5.91196590452625,0.0,2.0
1624263535.90625,0,0,0.0,0.0,2.0
1624263536.375,0,0,7.414722440543087,0.0,2.0
1624263536.84375,0,0,6.2653816735463455,0.0,2.0
1624263537.3125,0,0,5.641992545734471,0.0,2.0
1624263537.78125,0,0,7.981631156641958,0.0,2.0
1624263538.25,0,0,8.085193310568359,0.0,2.0
1624263538.71875,0,0,4.697278989498492,0.0,2.0
1624263539.1875,0,0,5.774609412419627,0.0,2.0
1624263539.65625,0,0,15.813722363297911,0.0,2.0
1624263540.125,0,0,20.400098425038447,0.0,2.0
1624263540.59375,0,0,0.0,0.0,2.0
1624263541.0625,0,0,0.0,0.0,2.0
1624263541.53125,0,0,18.993146004281407,0.0,2.0
1624263542.0,0,0,-12.367511789508045,0.0,2.0
1624263542.46875,0,0,34.643497755461205,0.0,2.0
1624263542.9375,0,0,0.7762773325115377,0.0,2.0
1624263543.40625,0,0,0.0,0.0,2.0
1624263543.875,0,0,7.962463992864978,0.0,2.0
1624263544.34375,0,0,6.152747485149879,0.0,2.0
1624263544.8125,0,0,4.619022741364551,0.0,2.0
1624263545.28125,0,0,0.0,0.0,2.0
1624263545.75,0,0,5.555671795062441,0.0,2.0
1624263546.21875,0,0,4.360556667938567,0.0,2.0
1624263546.6875,0,0,4.35357516991727,0.0,2.0
1624263547.15625,0,0,0.0,0.0,2.0
1624263547.625,0,0,5.973794762769014,0.0,2.0
1624263548.09375,0,0,6.413875923481185,0.0,2.0
1624263548.5625,0,0,0.0,0.0,2.0
1624263549.03125,0,0,4.182305965869283,0.0,2.0
1624263549.5,0,0,0.0,0.0,2.0
1624263549.96875,0,0,5.648314174736225,0.0,2.0
1624263550.4375,0,0,2.858757017238039,0.0,2.0
1624263550.90625,0,0,2.978116263841038,0.0,2.0
1624263551.375,0,0,7.40351839036177,0.0,2.0
1624263551.84375,0,0,0.0,0.0,2.0
1624263552.3125,0,0,5.679085739123967,0.0,2.0
1624263552.78125,0,0,0.0,0.0,2.0
1624263553.25,0,0,11.25462393086678,0.0,2.0
1624263553.71875,0,0,0.0,0.0,2.0
1624263554.1875,0,0,5.0862680907243165,0.0,2.0
1624263554.65625,0,0,12.145382252268695,0.0,2.0
1624263555.125,0,0,0.0,0.0,2.0
1624263555.59375,0,0,7.68933089664556,0.0,2.0
1624263556.0625,0,0,21.223520800510293,0.0,2.0
1624263556.53125,0,0,-2.7511266079572345,0.0,2.0
1624263557.0,0,0,7.167157011998804,0.0,2.0
1624263557.46875,0,0,32.21430950987619,0.0,2.0
1624263557.9375,0,0,7.7401550007786675,0.0,2.0
1624263558.40625,0,0,0.0,0.0,2.0
1624263558.875,0,0,10.75664422888857,0.0,2.0
1624263559.34375,0,0,0.0,0.0,2.0
1624263559.8125,0,0,26.60057864118714,0.0,2.0
1624263560.28125,0,0,8.85713070760738,0.0,2.0
1624263560.75,0,0,4.450505203983293,0.0,2.0
1624263561.21875,0,0,3.4904809083357935,0.0,2.0
1624263561.6875,0,0,0.0,0.0,2.0
1624263562.15625,0,0,7.834344616385732,0.0,2.0
1624263562.625,0,0,0.0,0.0,2.0
1624263563.09375,0,0,3.6077047453921107,0.0,2.0
1624263563.5625,0,0,6.563503585849731,0.0,2.0
1624263564.03125,0,0,20.10327220793678,0.0,2.0
1624263564.5,0,0,1.8568114672338936,0.0,2.0
1624263564.96875,0,0,0.0,0.0,2.0
1624263565.4375,0,0,0.0,0.0,2.0
1624263565.90625,0,0,234.21180345563567,0.0,2.0
1624263566.375,0,0,0.0,0.0,2.0
1624263566.84375,0,0,566.1509673176674,0.0,2.0
1624263567.3125,0,0,0.0,0.0,3.0
1624263567.78125,0,0,61.29299335359056,0.0,3.0
1624263568.25,0,0,98.35311887678739,0.0,3.0
1624263568.71875,0,0,253.40855617686498,0.0,3.0
1624263569.1875,0,0,106.30276045204971,0.0,3.0
1624263569.65625,0,0,64.29852061473689,0.0,3.0
1624263570.125,0,0,241.9564863970715,0.0,3.0
1624263570.59375,0,0,103.03500822826658,0.0,3.0
1624263571.0625,0,0,168.65487760106888,0.0,3.0
1624263571.53125,0,0,228.80499296439933,0.0,3.0
1624263572.0,0,0,70.48898034550504,0.0,3.0
1624263572.46875,0,0,4.766101882992845,0.0,3.0
1624263572.9375,0,0,6.550840644929325,0.0,3.0
1624263573.40625,0,0,17.919914498965863,0.0,3.0
1624263573.875,0,0,3.5588901861279916,0.0,3.0
1624263574.34375,0,0,-7.194677712501591,0.0,3.0
1624263574.8125,0,0,16.602080762732747,0.0,3.0
1624263575.28125,0,0,25.75244581930297,0.0,3.0
1624263575.75,0,0,28.88155704571105,0.0,3.0
1624263576.21875,0,0,0.0,0.0,3.0
1624263576.6875,0,0,1.3724621100516847,0.0,3.0
1624263577.15625,0,0,4.715993560411371,0.0,3.0
1624263577.625,0,0,3.544819852652001,0.0,3.0
1624263578.09375,0,0,-0.06330251158934601,0.0,3.0
1624263578.5625,0,0,4.363091720398472,0.0,3.0
1624263579.03125,0,0,3.126561264348844,0.0,3.0
1624263579.5,0,0,5.089410982054145,0.0,3.0
1624263579.96875,0,0,0.0,0.0,3.0
1624263580.4375,0,0,5.624454897822758,0.0,3.0
1624263580.90625,0,0,4.133033131333204,0.0,3.0
1624263581.375,0,0,1.6684197420178057,0.0,3.0
1624263581.84375,0,0,4.415747917291122,0.0,3.0
1624263582.3125,0,0,0.0,0.0,3.0
1624263582.78125,0,0,0.0,0.0,3.0
1624263583.25,0,0,4.482625480894997,0.0,3.0
1624263583.71875,0,0,0.0,0.0,3.0
1624263584.1875,0,0,6.446699466572759,0.0,3.0
1624263584.65625,0,0,2.6602788630193004,0.0,3.0
1624263585.125,0,0,0.0,0.0,3.0
1624263585.59375,0,0,0.0,0.0,3.0
1624263586.0625,0,0,76.51658896654271,0.0,3.0
1624263586.53125,0,0,0.0,0.0,3.0
1624263587.0,0,0,105.92609723203645,0.0,3.0
1624263587.46875,0,0,0.0,0.0,3.0
1624263587.9375,0,0,83.90898447211738,0.0,3.0
1624263588.40625,0,0,-22.16080111613261,0.0,3.0
1624263588.875,0,0,137.7662318236163,0.0,3.0
1624263589.34375,0,0,-39.474705348502596,0.0,3.0
1624263589.8125,0,0,219.00763190887537,0.0,3.0
1624263590.28125,0,0,404.94035532614026,0.0,3.0
1624263590.75,0,0,91.63119844098104,0.0,3.0
1624263591.21875,0,0,-77.7422833192142,0.0,3.0
1624263591.6875,0,0,387.3505029945734,0.0,3.0
1624263592.15625,0,0,213.69341244301023,0.0,3.0
1624263592.625,0,0,378.06667929054447,0.0,3.0
1624263593.09375,0,0,739.1793288402606,0.0,3.0
1624263593.5625,0,0,0.0,0.0,3.0
1624263594.03125,0,0,479.1426919818425,0.0,3.0
1624263594.5,0,0,47.94173740140768,0.0,3.0
1624263594.96875,0,0,191.79993867375356,0.0,3.0
1624263595.4375,0,0,689.9312657856796,0.0,3.0
1624263595.90625,0,0,0.0,0.0,3.0
1624263596.375,0,0,-183.0828582429998,0.0,3.0
1624263596.84375,0,0,386.0541617880305,0.0,3.0
1624263597.3125,0,0,203.2700286624399,0.0,3.0
1624263597.78125,0,0,-0.8081577616487672,0.0,3.0
1624263598.25,0,0,145.22010580354058,0.0,3.0
1624263598.71875,0,0,10.262521191567402,0.0,3.0
1624263599.1875,0,0,0.0,0.0,3.0
1624263599.65625,0,0,26.549049045149893,0.0,3.0
1624263600.125,0,0,94.72736535073093,0.0,3.0
1624263600.59375,0,0,0.0,0.0,3.0
1624263601.0625,0,0,220.93690746580944,0.0,3.0
1624263601.53125,0,0,50.85439773167395,0.0,3.0
1624263602.0,0,0,314.70671677616343,0.0,3.0
1624263602.46875,0,0,-23.356134103964475,0.0,3.0
1624263602.9375,0,0,0.0,0.0,3.0
1624263603.40625,0,0,400.8434194108178,0.0,3.0
1624263603.875,0,0,0.0,0.0,3.0
1624263604.34375,0,0,259.35856759132395,0.0,3.0
1624263604.8125,0,0,0.0,0.0,3.0
1624263605.28125,0,0,156.83280743513777,0.0,3.0
1624263605.75,0,0,381.33165841332647,0.0,3.0
1624263606.21875,0,0,-40.46325717490938,0.0,3.0
1624263606.6875,0,0,246.5035268444026,0.0,3.0
1624263607.15625,0,0,124.08666079225198,0.0,3.0
1624263607.625,0,0,191.77087508635537,0.0,3.0
1624263608.09375,0,0,261.7810775972989,0.0,3.0
1624263608.5625,0,0,0.0,0.0,3.0
1624263609.03125,0,0,425.23022216155454,0.0,3.0
1624263609.5,0,0,172.66974664136427,0.0,3.0
1624263609.96875,0,0,170.02766692659327,0.0,3.0
1624263610.4375,0,0,0.0,0.0,3.0
1624263610.90625,0,0,0.0,0.0,3.0
1624263611.375,0,0,273.5097321182411,0.0,3.0
1624263611.84375,0,0,178.67092212518128,0.0,3.0
1624263612.3125,0,0,73.56792861271819,0.0,3.0
1624263612.78125,0,0,248.80823589079444,0.0,3.0
1624263613.25,0,0,165.03078113164867,0.0,3.0
1624263613.71875,0,0,-47.03606114141989,0.0,3.0
1624263614.1875,0,0,454.9316524624279,0.0,3.0
1624263614.65625,0,0,0.0,0.0,3.0
1624263615.125,0,0,166.0362008870445,0.0,3.0
1624263615.59375,0,0,202.15761073320047,0.0,3.0
1624263616.0625,0,0,283.3890859938744,0.0,3.0
1624263616.53125,0,0,308.5835373936453,0.0,3.0
1624263617.0,0,0,161.75917154429172,0.0,3.0
1624263617.46875,0,0,0.0,0.0,3.0
1624263617.9375,0,0,436.8484110548861,0.0,3.0
1624263618.40625,0,0,158.97841724867288,0.0,3.0
1624263618.875,0,0,113.55317786529491,0.0,3.0
1624263619.34375,0,0,0.0,0.0,3.0
1624263619.8125,0,0,400.151209544485,0.0,3.0
1624263620.28125,0,0,216.30448855136197,0.0,3.0
1624263620.75,0,0,87.30511484694449,0.0,3.0
1624263621.21875,0,0,0.0,0.0,3.0
1624263621.6875,0,0,130.91095842203814,0.0,3.0
1624263622.15625,0,0,34.44811402942935,0.0,3.0
1624263622.625,0,0,-19.569289302712114,0.0,3.0
1624263623.09375,0,0,6.8581073474598,0.0,3.0
1624263623.5625,0,0,0.0,0.0,3.0
1624263624.03125,0,0,0.0,0.0,3.0
1624263624.5,0,0,50.26004156336967,0.0,3.0
1624263624.96875,0,0,-29.187262897504283,0.0,3.0
1624263625.4375,0,0,105.91902883441776,0.0,3.0
1624263625.90625,0,0,66.94347629723056,0.0,3.0
1624263626.375,0,0,0.0,0.0,3.0
1624263626.84375,0,0,111.24488495040883,0.0,3.0
1624263627.3125,0,0,43.52454823762309,0.0,3.0
1624263627.78125,0,0,37.85025223782519,0.0,3.0
1624263628.25,0,0,0.0,0.0,3.0
1624263628.71875,0,0,89.02343998129365,0.0,3.0
1624263629.1875,0,0,-110.05116426806603,0.0,3.0
1624263629.65625,0,0,0.0,0.0,3.0
1624263630.125,0,0,0.0,0.0,3.0
1624263630.59375,0,0,49.54154183291816,0.0,3.0
1624263631.0625,0,0,6.341705664458036,0.0,3.0
1624263631.53125,0,0,30.87091902704193,0.0,3.0
1624263632.0,0,0,183.16626559578773,0.0,3.0
1624263632.46875,0,0,4.395755118863819,0.0,3.0
1624263632.9375,0,0,109.27125955659164,0.0,3.0
1624263633.40625,0,0,0.0,0.0,3.0
1624263633.875,0,0,442.04596266252787,0.0,3.0
1624263634.34375,0,0,0.0,0.0,3.0
1624263634.8125,0,0,109.19311287436214,0.0,3.0
1624263635.28125,0,0,96.55595592559108,0.0,3.0
1624263635.75,0,0,90.58393067440302,0.0,3.0
1624263636.21875,0,0,174.7580831946935,0.0,3.0
1624263636.6875,0,0,450.13055319232757,0.0,3.0
1624263637.15625,0,0,171.96692875520566,0.0,3.0
1624263637.625,0,0,218.78319140633945,0.0,3.0
1624263638.09375,0,0,0.0,0.0,3.0
1624263638.5625,0,0,279.4533072422621,0.0,3.0
1624263639.03125,0,0,323.5507924007062,0.0,3.0
1624263639.5,0,0,0.0,0.0,3.0
1624263639.96875,0,0,123.4772940159369,0.0,3.0
1624263640.4375,0,0,393.16096414452375,0.0,3.0
1624263640.90625,0,0,351.83273104020424,0.0,3.0
1624263641.375,0,0,0.0,0.0,3.0
1624263641.84375,0,0,-26.081779219575328,0.0,3.0
1624263642.3125,0,0,299.61989225314034,0.0,3.0
1624263642.78125,0,0,172.0055090342379,0.0,3.0
1624263643.25,0,0,219.76283560768377,0.0,3.0
1624263643.71875,0,0,0.0,0.0,3.0
1624263644.1875,0,0,408.28047159013664,0.0,3.0
1624263644.65625,0,0,89.50132326369707,0.0,3.0
1624263645.125,0,0,174.48523107962637,0.0,3.0
1624263645.59375,0,0,0.0,0.0,3.0
1624263646.0625,0,0,0.0,0.0,3.0
1624263646.53125,0,0,222.7699902333951,0.0,3.0
1624263647.0,0,0,52.22193682504962,0.0,3.0
1624263647.46875,0,0,284.42029354392685,0.0,3.0
1624263647.9375,0,0,0.0,0.0,3.0
1624263648.40625,0,0,389.4813681566214,0.0,3.0
1624263648.875,0,0,125.73129766683284,0.0,3.0
1624263649.34375,0,0,292.71835237401194,0.0,3.0
1624263649.8125,0,0,0.0,0.0,3.0
1624263650.28125,0,0,283.60067200631266,0.0,3.0
1624263650.75,0,0,192.04582322950787,0.0,3.0
1624263651.21875,0,0,349.17640793708443,0.0,3.0
1624263651.6875,0,0,0.0,0.0,3.0
1624263652.15625,0,0,191.62541737569987,0.0,3.0
1624263652.625,0,0,192.84350944928335,0.0,3.0
1624263653.09375,0,0,460.5009391688505,0.0,3.0
1624263653.5625,0,0,0.0,0.0,3.0
1624263654.03125,0,0,367.4502334480115,0.0,3.0
1624263654.5,0,0,0.16019858209807575,0.0,3.0
1624263654.96875,0,0,445.0935569021874,0.0,3.0
1624263655.4375,0,0,337.0406057812893,0.0,3.0
1624263655.90625,0,0,0.0,0.0,3.0
1624263656.375,0,0,271.8681490394197,0.0,3.0
1624263656.84375,0,0,362.9395100745511,0.0,3.0
1624263657.3125,0,0,161.8504728045941,0.0,3.0
1624263657.78125,0,0,0.0,0.0,3.0
1624263658.25,0,0,160.00593692421978,0.0,3.0
1624263658.71875,0,0,371.68642134346413,0.0,3.0
1624263659.1875,0,0,286.25150126104876,0.0,3.0
1624263659.65625,0,0,0.0,0.0,3.0
1624263660.125,0,0,205.29118051781816,0.0,3.0
1624263660.59375,0,0,329.29814897246996,0.0,3.0
1624263661.0625,0,0,0.0,0.0,3.0
1624263661.53125,0,0,164.75747720662702,0.0,3.0
1624263662.0,0,0,114.14364113148558,0.0,3.0
1624263662.46875,0,0,172.11501505450298,0.0,3.0
1624263662.9375,0,0,0.0,0.0,3.0
1624263663.40625,0,0,32.99713453580804,0.0,3.0
1624263663.875,0,0,72.70372761635767,0.0,3.0
1624263664.34375,0,0,361.75149735092094,0.0,3.0
1624263664.8125,0,0,0.0,0.0,3.0
1624263665.28125,0,0,106.54109279173362,0.0,3.0
1624263665.75,0,0,91.14459667323233,0.0,3.0
1624263666.21875,0,0,0.0,0.0,3.0
1624263666.6875,0,0,259.284566575091,0.0,3.0
1624263667.15625,0,0,129.4773268727571,0.0,3.0
1624263667.625,0,0,5.675286877896632,0.0,3.0
1624263668.09375,0,0,0.0,0.0,3.0
1624263668.5625,0,0,310.0305976323967,0.0,3.0
1624263669.03125,0,0,149.19849715447256,0.0,3.0
1624263669.5,0,0,57.204690246905855,0.0,3.0
1624263669.96875,0,0,0.0,0.0,3.0
1624263670.4375,0,0,242.9677812783874,0.0,3.0
1624263670.90625,0,0,93.64393437907886,0.0,3.0
1624263671.375,0,0,0.0,0.0,3.0
1624263671.84375,0,0,19.100323219089947,0.0,3.0
1624263672.3125,0,0,313.41571013192555,0.0,3.0
1624263672.78125,0,0,86.40828379163952,0.0,3.0
1624263673.25,0,0,70.08539915711766,0.0,3.0
1624263673.71875,0,0,9.51425470723006,0.0,3.0
1624263674.1875,0,0,150.06631929644158,0.0,3.0
1624263674.65625,0,0,0.0,0.0,3.0
1624263675.125,0,0,22.57987677114259,0.0,3.0
1624263675.59375,0,0,27.78189587060557,0.0,3.0
1624263676.0625,0,0,164.12576515542978,0.0,3.0
1624263676.53125,0,0,0.0,0.0,3.0
1624263677.0,0,0,0.0,0.0,3.0
1624263677.46875,0,0,32.896990944839466,0.0,3.0
1624263677.9375,0,0,85.3576813884487,0.0,3.0
1624263678.40625,0,0,0.0,0.0,3.0
1624263678.875,0,0,139.2537546723717,0.0,3.0
1624263679.34375,0,0,40.360260576611374,0.0,3.0
1624263679.8125,0,0,0.0,0.0,3.0
1624263680.28125,0,0,34.33772532600743,0.0,3.0
1624263680.75,0,0,0.0,0.0,3.0
1624263681.21875,0,0,627.4973878077501,0.0,3.0
1624263681.6875,0,0,0.0,0.0,3.0
1624263682.15625,0,0,273.7788535229947,0.0,3.0
1624263682.625,0,0,224.1521886543453,0.0,3.0
1624263683.09375,0,0,-12.558350520728197,0.0,3.0
1624263683.5625,0,0,-53.824690275291694,0.0,3.0
1624263684.03125,0,0,55.126393188179456,0.0,3.0
1624263684.5,0,0,331.98701834647267,0.0,3.0
1624263684.96875,0,0,-50.94399109120739,0.0,3.0
1624263685.4375,0,0,222.57480653192087,0.0,3.0
1624263685.90625,0,0,918.3091754245536,0.0,3.0
1624263686.375,0,0,-0.5592647905604913,0.0,3.0
1624263686.84375,0,0,0.0,0.0,3.0
1624263687.3125,0,0,336.48240336546166,0.0,3.0
1624263687.78125,0,0,279.497316609542,0.0,3.0
1624263688.25,0,0,111.5158922184747,0.0,3.0
1624263688.71875,0,0,11.534043593745432,0.0,3.0
1624263689.1875,0,0,237.96775092017182,0.0,3.0
1624263689.65625,0,0,160.25786281612938,0.0,3.0
1624263690.125,0,0,40.67263359723109,0.0,3.0
1624263690.59375,0,0,0.0,0.0,3.0
1624263691.0625,0,0,255.02985459440222,0.0,3.0
1624263691.53125,0,0,-204.40627581316954,0.0,3.0
1624263692.0,0,0,804.0959617987223,0.0,3.0
1624263692.46875,0,0,-33.00791676093709,0.0,3.0
1624263692.9375,0,0,333.515757255966,0.0,3.0
1624263693.40625,0,0,249.2126547006373,0.0,3.0
1624263693.875,0,0,0.0,0.0,3.0
1624263694.34375,0,0,-9.176827634846255,0.0,3.0
1624263694.8125,0,0,508.5027100734498,0.0,3.0
1624263695.28125,0,0,0.0,0.0,3.0
1624263695.75,0,0,4.058941185622879,0.0,3.0
1624263696.21875,0,0,162.42961522865943,0.0,3.0
1624263696.6875,0,0,107.03906707459468,0.0,3.0
1624263697.15625,0,0,0.0,0.0,3.0
1624263697.625,0,0,296.8387183380329,0.0,3.0
1624263698.09375,0,0,143.6970212824416,0.0,3.0
1624263698.5625,0,0,221.95710884797955,0.0,3.0
1624263699.03125,0,0,0.0,0.0,3.0
1624263699.5,0,0,1436.304126406975,0.0,3.0
1624263699.96875,0,0,0.0,0.0,3.0
1624263700.4375,0,0,389.7521650380486,0.0,3.0
1624263700.90625,0,0,27.91506420314867,0.0,3.0
1624263701.375,0,0,124.45033461888106,0.0,3.0
1624263701.84375,0,0,3.8433636680383425,0.0,3.0
1624263702.3125,0,0,78.90461746469936,0.0,3.0
1624263702.78125,0,0,205.0233504893048,0.0,3.0
1624263703.25,0,0,27.068246724977495,0.0,3.0
1624263703.71875,0,0,67.91576624266523,0.0,3.0
1624263704.1875,0,0,0.0,0.0,3.0
1624263704.65625,0,0,146.80443612418412,0.0,3.0
1624263705.125,0,0,0.0,0.0,3.0
1624263705.59375,0,0,18.33198033883815,0.0,3.0
1624263706.0625,0,0,0.0,0.0,3.0
1624263706.53125,0,0,0.0,0.0,3.0
1624263707.0,0,0,20.2335716918651,0.0,3.0
1624263707.46875,0,0,18.8175944226833,0.0,3.0
1624263707.9375,0,0,0.0,0.0,3.0
1624263708.40625,0,0,119.9204616770424,0.0,3.0
1624263708.875,0,0,40.10252374069007,0.0,3.0
1624263709.34375,0,0,20.527154154172536,0.0,3.0
1624263709.8125,0,0,99.3565233257875,0.0,3.0
1624263710.28125,0,0,0.0,0.0,3.0
1624263710.75,0,0,18.99789356106922,0.0,3.0
1624263711.21875,0,0,24.661110107895862,0.0,3.0
1624263711.6875,0,0,113.34058215591757,0.0,3.0
1624263712.15625,0,0,0.0,0.0,3.0
1624263712.625,0,0,41.990871184011155,0.0,3.0
1624263713.09375,0,0,6.074418161466496,0.0,3.0
1624263713.5625,0,0,103.9575121625308,0.0,3.0
1624263714.03125,0,0,0.0,0.0,3.0
1624263714.5,0,0,51.041878982061014,0.0,3.0
1624263714.96875,0,0,28.816196929997982,0.0,3.0
1624263715.4375,0,0,135.54355099580732,0.0,3.0
1624263715.90625,0,0,0.0,0.0,3.0
1624263716.375,0,0,65.25251486810897,0.0,3.0
1624263716.84375,0,0,3.487879479781768,0.0,3.0
1624263717.3125,0,0,241.2096817412783,0.0,3.0
1624263717.78125,0,0,0.0,0.0,3.0
1624263718.25,0,0,67.42988402781664,0.0,3.0
1624263718.71875,0,0,32.83341622363545,0.0,3.0
1624263719.1875,0,0,0.0,0.0,3.0
1624263719.65625,0,0,0.0,0.0,3.0
1624263720.125,0,0,22.917300259138884,0.0,3.0
1624263720.59375,0,0,19.229182937270757,0.0,3.0
1624263721.0625,0,0,0.0,0.0,3.0
1624263721.53125,0,0,239.92901786383578,0.0,3.0
1624263722.0,0,0,87.54648139458874,0.0,3.0
1624263722.46875,0,0,16.828374730797453,0.0,3.0
1624263722.9375,0,0,0.0,0.0,3.0
1624263723.40625,0,0,140.53158779671926,0.0,3.0
1624263723.875,0,0,34.426941010655,0.0,3.0
1624263724.34375,0,0,2.5465599171644664,0.0,3.0
1624263724.8125,0,0,0.0,0.0,3.0
1624263725.28125,0,0,195.9361382079638,0.0,3.0
1624263725.75,0,0,58.99376193548832,0.0,3.0
1624263726.21875,0,0,0.0,0.0,3.0
1624263726.6875,0,0,0.0,0.0,3.0
1624263727.15625,0,0,214.07044542845045,0.0,3.0
1624263727.625,0,0,29.433840913271364,0.0,3.0
1624263728.09375,0,0,0.0,0.0,3.0
1624263728.5625,0,0,0.0,0.0,3.0
1624263729.03125,0,0,122.4082523446938,0.0,3.0
1624263729.5,0,0,34.32406877927313,0.0,3.0
1624263729.96875,0,0,0.0,0.0,3.0
1624263730.4375,0,0,0.0,0.0,3.0
1624263730.90625,0,0,136.79114163519904,0.0,3.0
1624263731.375,0,0,33.59359281790335,0.0,3.0
1624263731.84375,0,0,0.0,0.0,3.0
1624263732.3125,0,0,0.0,0.0,3.0
1624263732.78125,0,0,111.32173989518654,0.0,3.0
1624263733.25,0,0,38.75977112524628,0.0,3.0
1624263733.71875,0,0,0.0,0.0,3.0
1624263734.1875,0,0,41.050746106081725,0.0,3.0
1624263734.65625,0,0,13.180952825020041,0.0,3.0
1624263735.125,0,0,17.0860844205259,0.0,3.0
1624263735.59375,0,0,17.456921636009927,0.0,3.0
1624263736.0625,0,0,0.0,0.0,3.0
1624263736.53125,0,0,0.0,0.0,3.0
1624263737.0,0,0,8.35834014916893,0.0,3.0
1624263737.46875,0,0,0.0,0.0,3.0
1624263737.9375,0,0,12.628192455931876,0.0,3.0
1624263738.40625,0,0,4.7849791085100835,0.0,3.0
1624263738.875,0,0,6.580381207592793,0.0,3.0
1624263739.34375,0,0,10.76343480417661,0.0,3.0
1624263739.8125,0,0,5.481127218673491,0.0,3.0
1624263740.28125,0,0,19.351862519807455,0.0,3.0
1624263740.75,0,0,15.210236862514053,0.0,3.0
1624263741.21875,0,0,-37.91450177847843,0.0,3.0
1624263741.6875,0,0,132.79523305468334,0.0,3.0
1624263742.15625,0,0,0.0,0.0,3.0
1624263742.625,0,0,65.08205305854516,0.0,3.0
1624263743.09375,0,0,60.06570090971415,0.0,3.0
1624263743.5625,0,0,17.90550126279612,0.0,3.0
1624263744.03125,0,0,7.668057107248929,0.0,3.0
1624263744.5,0,0,0.0,0.0,3.0
1624263744.96875,0,0,52.773333564659715,0.0,3.0
1624263745.4375,0,0,18.182130697093037,0.0,3.0
1624263745.90625,0,0,-5.2789163621647095,0.0,3.0
1624263746.375,0,0,8.947081255509357,0.0,3.0
1624263746.84375,0,0,26.778443326710107,0.0,3.0
1624263747.3125,0,0,24.23175123554469,0.0,3.0
1624263747.78125,0,0,-3.0645090148289333,0.0,3.0
1624263748.25,0,0,21.825992880427968,0.0,3.0
1624263748.71875,0,0,26.596111683385637,0.0,3.0
1624263749.1875,0,0,19.6656286793655,0.0,3.0
1624263749.65625,0,0,112.8510494350635,0.0,3.0
1624263750.125,0,0,0.0,0.0,3.0
1624263750.59375,0,0,21.493300820730674,0.0,3.0
1624263751.0625,0,0,0.0,0.0,3.0
1624263751.53125,0,0,136.21327302611942,0.0,3.0
1624263752.0,0,0,0.0,0.0,3.0
1624263752.46875,0,0,66.62981780529239,0.0,3.0
1624263752.9375,0,0,-16.360410900568745,0.0,3.0
1624263753.40625,0,0,96.51807316462504,0.0,3.0
1624263753.875,0,0,25.70386207446403,0.0,3.0
1624263754.34375,0,0,21.366615213758752,0.0,3.0
1624263754.8125,0,0,0.0,0.0,3.0
1624263755.28125,0,0,194.69957368220676,0.0,3.0
1624263755.75,0,0,55.40301402187859,0.0,3.0
1624263756.21875,0,0,0.0,0.0,3.0
1624263756.6875,0,0,0.0,0.0,3.0
1624263757.15625,0,0,0.0,0.0,3.0
1624263757.625,0,0,24.54230277045672,0.0,3.0
1624263758.09375,0,0,20.718642844209448,0.0,3.0
1624263758.5625,0,0,166.38824622195145,0.0,3.0
1624263759.03125,0,0,0.0,0.0,3.0
1624263759.5,0,0,22.26074692046128,0.0,3.0
1624263759.96875,0,0,15.538768850164939,0.0,3.0
1624263760.4375,0,0,159.23936664326732,0.0,3.0
1624263760.90625,0,0,0.0,0.0,3.0
1624263761.375,0,0,40.096719431407806,0.0,3.0
1624263761.84375,0,0,26.775724035549036,0.0,3.0
1624263762.3125,0,0,42.245426963680586,0.0,3.0
1624263762.78125,0,0,61.225832423649905,0.0,3.0
1624263763.25,0,0,2.9458501135421735,0.0,3.0
1624263763.71875,0,0,11.494708973377731,0.0,3.0
1624263764.1875,0,0,145.05028786897523,0.0,3.0
1624263764.65625,0,0,0.0,0.0,3.0
1624263765.125,0,0,34.87309079895948,0.0,3.0
1624263765.59375,0,0,0.0,0.0,3.0
1624263766.0625,0,0,128.32253231509262,0.0,3.0
1624263766.53125,0,0,0.0,0.0,3.0
1624263767.0,0,0,27.02614056089846,0.0,3.0
1624263767.46875,0,0,12.99365978142834,0.0,3.0
1624263767.9375,0,0,159.18364562620198,0.0,3.0
1624263768.40625,0,0,0.0,0.0,3.0
1624263768.875,0,0,22.868182407303287,0.0,3.0
1624263769.34375,0,0,28.762247528579067,0.0,3.0
1624263769.8125,0,0,82.12422978647912,0.0,3.0
1624263770.28125,0,0,0.0,0.0,3.0
1624263770.75,0,0,14.687067483631237,0.0,3.0
1624263771.21875,0,0,3.7334821976289905,0.0,3.0
1624263771.6875,0,0,0.0,0.0,3.0
1624263772.15625,0,0,0.0,0.0,3.0
1624263772.625,0,0,51.88219790599222,0.0,3.0
1624263773.09375,0,0,8.836511057160102,0.0,3.0
1624263773.5625,0,0,0.0,0.0,3.0
1624263774.03125,0,0,0.0,0.0,3.0
1624263774.5,0,0,12.188686434485234,0.0,3.0
