timestamp,mean_pulse_rate,pulse_rate_std,mean_pulse_amplitude,pulse_amplitude_std,block
1625449848.5625,0,0,0.0,0.0,1.0
1625449849.03125,0,0,252.89650474369955,0.0,1.0
1625449849.5,0,0,0.0,0.0,1.0
1625449849.96875,0,0,-6.8565728097492205,0.0,1.0
1625449850.4375,0,0,0.0,0.0,1.0
1625449850.90625,0,0,42.6471248802657,0.0,1.0
1625449851.375,0,0,357.2330526435131,0.0,1.0
1625449851.84375,0,0,0.9856620543315813,0.0,1.0
1625449852.3125,0,0,11.29356152216081,0.0,1.0
1625449852.78125,0,0,32.48539856057,0.0,1.0
1625449853.25,0,0,148.2710491157591,0.0,1.0
1625449853.71875,0,0,72.6541092408634,0.0,1.0
1625449854.1875,0,0,41.296932775928155,0.0,1.0
1625449854.65625,0,0,103.51276890599867,0.0,1.0
1625449855.125,0,0,0.0,0.0,1.0
1625449855.59375,0,0,335.9455977763069,0.0,1.0
1625449856.0625,0,0,-90.67985050797223,0.0,1.0
1625449856.53125,0,0,124.28803861289883,0.0,1.0
1625449857.0,0,0,0.0,0.0,1.0
1625449857.46875,0,0,54.48361078146005,0.0,1.0
1625449857.9375,0,0,74.1274202176141,0.0,1.0
1625449858.40625,0,0,11.847386783566645,0.0,1.0
1625449858.875,0,0,100.11012699431224,0.0,1.0
1625449859.34375,0,0,29.75229035389277,0.0,1.0
1625449859.8125,0,0,-22.995595717502955,0.0,1.0
1625449860.28125,0,0,169.4870600485091,0.0,1.0
1625449860.75,0,0,49.935142314616066,0.0,1.0
1625449861.21875,0,0,-10.849995565242367,0.0,1.0
1625449861.6875,0,0,16.120705348741588,0.0,1.0
1625449862.15625,0,0,21.09005825106222,0.0,1.0
1625449862.625,0,0,0.0,0.0,1.0
1625449863.09375,0,0,0.20996341791272644,0.0,1.0
1625449863.5625,0,0,0.0,0.0,1.0
1625449864.03125,0,0,95.00458142477015,0.0,1.0
1625449864.5,0,0,38.561689718426095,0.0,1.0
1625449864.96875,0,0,60.6775947282383,0.0,1.0
1625449865.4375,0,0,20.792840996274663,0.0,1.0
1625449865.90625,0,0,79.47469832353858,0.0,1.0
1625449866.375,0,0,0.0,0.0,1.0
1625449866.84375,0,0,13.985227490821279,0.0,1.0
1625449867.3125,0,0,0.0,0.0,1.0
1625449867.78125,0,0,123.86208669312768,0.0,1.0
1625449868.25,0,0,49.23693719667536,0.0,1.0
1625449868.71875,0,0,119.60653204107477,0.0,1.0
1625449869.1875,0,0,-61.43009374309215,0.0,1.0
1625449869.65625,0,0,84.77093200108006,0.0,1.0
1625449870.125,0,0,10.5156613608906,0.0,1.0
1625449870.59375,0,0,87.94686841651236,0.0,1.0
1625449871.0625,0,0,7.761549916489404,0.0,1.0
1625449871.53125,0,0,46.629161720999775,0.0,1.0
1625449872.0,0,0,52.15568928562485,0.0,1.0
1625449872.46875,0,0,0.0,0.0,1.0
1625449872.9375,0,0,41.102103414385965,0.0,1.0
1625449873.40625,0,0,215.19782899939514,0.0,1.0
1625449873.875,0,0,0.0,0.0,1.0
1625449874.34375,0,0,35.42796783328305,0.0,1.0
1625449874.8125,0,0,0.0,0.0,1.0
1625449875.28125,0,0,75.53494357118484,0.0,1.0
1625449875.75,0,0,32.09455877372793,0.0,1.0
1625449876.21875,0,0,-8.885437358451641,0.0,1.0
1625449876.6875,0,0,39.3663304462634,0.0,1.0
1625449877.15625,0,0,101.80935274169829,0.0,1.0
1625449877.625,0,0,46.462429079291695,0.0,1.0
1625449878.09375,0,0,47.23746671255462,0.0,1.0
1625449878.5625,0,0,45.7748452701041,0.0,1.0
1625449879.03125,0,0,42.34087319508777,0.0,1.0
1625449879.5,0,0,26.69185631715708,0.0,1.0
1625449879.96875,0,0,300.71729437032224,0.0,1.0
1625449880.4375,0,0,0.0,0.0,1.0
1625449880.90625,0,0,12.456350844459765,0.0,1.0
1625449881.375,0,0,379.3167269444452,0.0,1.0
1625449881.84375,0,0,0.0,0.0,1.0
1625449882.3125,0,0,65.87325519217013,0.0,1.0
1625449882.78125,0,0,-11.86934303160404,0.0,1.0
1625449883.25,0,0,246.63950500446154,0.0,1.0
1625449883.71875,0,0,-18.595993003802835,0.0,1.0
1625449884.1875,0,0,44.60666163430027,0.0,1.0
1625449884.65625,0,0,0.0,0.0,1.0
1625449885.125,0,0,297.34155312252494,0.0,1.0
1625449885.59375,0,0,0.0,0.0,1.0
1625449886.0625,0,0,65.33064325288622,0.0,1.0
1625449886.53125,0,0,-76.64388484288708,0.0,1.0
1625449887.0,0,0,299.7603164920383,0.0,1.0
1625449887.46875,0,0,-21.70283860264753,0.0,1.0
1625449887.9375,0,0,0.0,0.0,1.0
1625449888.40625,0,0,46.19339054398126,0.0,1.0
1625449888.875,0,0,-60.37206539005636,0.0,1.0
1625449889.34375,0,0,276.5250414760487,0.0,1.0
1625449889.8125,0,0,-39.3887698724409,0.0,1.0
1625449890.28125,0,0,0.0,0.0,1.0
1625449890.75,0,0,43.251885130183446,0.0,1.0
1625449891.21875,0,0,0.0,0.0,1.0
1625449891.6875,0,0,254.9611413058029,0.0,1.0
1625449892.15625,0,0,0.0,0.0,1.0
1625449892.625,0,0,-46.516671368422855,0.0,1.0
1625449893.09375,0,0,386.26888006897406,0.0,1.0
1625449893.5625,0,0,-72.49155303385957,0.0,1.0
1625449894.03125,0,0,-1.2613851145431607,0.0,1.0
1625449894.5,0,0,-8.300743386134421,0.0,1.0
1625449894.96875,0,0,263.359748629576,0.0,1.0
1625449895.4375,0,0,-20.02123665185401,0.0,1.0
1625449895.90625,0,0,33.84644089883374,0.0,1.0
1625449896.375,0,0,0.0,0.0,1.0
1625449896.84375,0,0,240.29883190347692,0.0,1.0
1625449897.3125,0,0,24.690947331551037,0.0,1.0
1625449897.78125,0,0,0.0,0.0,1.0
1625449898.25,0,0,10.752141097296258,0.0,1.0
1625449898.71875,0,0,0.0,0.0,1.0
1625449899.1875,0,0,249.6323229122793,0.0,1.0
1625449899.65625,0,0,16.752746869574356,0.0,1.0
1625449900.125,0,0,0.0,0.0,1.0
1625449900.59375,0,0,-13.332983748859581,0.0,1.0
1625449901.0625,0,0,188.93722928226057,0.0,1.0
1625449901.53125,0,0,14.5711209113428,0.0,1.0
1625449902.0,0,0,27.69780636481351,0.0,1.0
1625449902.46875,0,0,0.0,0.0,1.0
1625449902.9375,0,0,189.05581210949813,0.0,1.0
1625449903.40625,0,0,-29.20409707733285,0.0,1.0
1625449903.875,0,0,32.1760837890767,0.0,1.0
1625449904.34375,0,0,0.0,0.0,1.0
1625449904.8125,0,0,271.5059839841058,0.0,1.0
1625449905.28125,0,0,0.0,0.0,1.0
1625449905.75,0,0,16.14968321102635,0.0,1.0
1625449906.21875,0,0,24.153091244680056,0.0,1.0
1625449906.6875,0,0,0.0,0.0,1.0
1625449907.15625,0,0,182.21600451273483,0.0,1.0
1625449907.625,0,0,-6.519040799013862,0.0,1.0
1625449908.09375,0,0,0.0,0.0,1.0
1625449908.5625,0,0,-25.279376774160376,0.0,1.0
1625449909.03125,0,0,303.2352436084314,0.0,1.0
1625449909.5,0,0,-23.97147481840928,0.0,1.0
1625449909.96875,0,0,16.421753358785516,0.0,1.0
1625449910.4375,0,0,0.0,0.0,1.0
1625449910.90625,0,0,0.0,0.0,1.0
1625449911.375,0,0,39.39823740588348,0.0,1.0
1625449911.84375,0,0,0.0,0.0,1.0
1625449912.3125,0,0,-12.038945268052942,0.0,1.0
1625449912.78125,0,0,156.89788154949255,0.0,1.0
1625449913.25,0,0,0.0,0.0,1.0
1625449913.71875,0,0,36.041467442320425,0.0,1.0
1625449914.1875,0,0,-11.875726401555884,0.0,1.0
1625449914.65625,0,0,174.61303466118224,0.0,1.0
1625449915.125,0,0,-49.86797076663005,0.0,1.0
1625449915.59375,0,0,29.060064045364854,0.0,1.0
1625449916.0625,0,0,-25.829910479043573,0.0,1.0
1625449916.53125,0,0,251.8365553148967,0.0,1.0
1625449917.0,0,0,-18.94366920197147,0.0,1.0
1625449917.46875,0,0,39.245623204475216,0.0,1.0
1625449917.9375,0,0,0.0,0.0,1.0
1625449918.40625,0,0,302.4321282073451,0.0,1.0
1625449918.875,0,0,0.0,0.0,1.0
1625449919.34375,0,0,39.64497015592924,0.0,1.0
1625449919.8125,0,0,0.0,0.0,1.0
1625449920.28125,0,0,257.832164421051,0.0,1.0
1625449920.75,0,0,0.0,0.0,1.0
1625449921.21875,0,0,0.0,0.0,1.0
1625449921.6875,0,0,34.740230332784286,0.0,1.0
1625449922.15625,0,0,0.0,0.0,1.0
1625449922.625,0,0,0.0,0.0,1.0
1625449923.09375,0,0,3.989966570271393,0.0,1.0
1625449923.5625,0,0,22.374752582643843,0.0,1.0
1625449924.03125,0,0,0.0,0.0,1.0
1625449924.5,0,0,10.725200994732658,0.0,1.0
1625449924.96875,0,0,56.99126085493084,0.0,1.0
1625449925.4375,0,0,0.0,0.0,1.0
1625449925.90625,0,0,30.646370471874423,0.0,1.0
1625449926.375,0,0,13.551247387663274,0.0,1.0
1625449926.84375,0,0,-3.766723278619971,0.0,1.0
1625449927.3125,0,0,16.888675992826702,0.0,1.0
1625449927.78125,0,0,17.4589061076015,0.0,1.0
1625449928.25,0,0,0.0,0.0,1.0
1625449928.71875,0,0,64.01503171412521,0.0,1.0
1625449929.1875,0,0,-25.087702589249094,0.0,1.0
1625449929.65625,0,0,314.8029226525042,0.0,1.0
1625449930.125,0,0,0.0,0.0,1.0
1625449930.59375,0,0,39.79685558364406,0.0,1.0
1625449931.0625,0,0,52.05348152581096,0.0,1.0
1625449931.53125,0,0,58.66174345703862,0.0,1.0
1625449932.0,0,0,-13.165364892736198,0.0,1.0
1625449932.46875,0,0,51.723842274885335,0.0,1.0
1625449932.9375,0,0,46.865384741469185,0.0,1.0
1625449933.40625,0,0,0.0,0.0,1.0
1625449933.875,0,0,22.55933188763026,0.0,1.0
1625449934.34375,0,0,20.03920537912607,0.0,1.0
1625449934.8125,0,0,0.0,0.0,1.0
1625449935.28125,0,0,24.76313785178549,0.0,1.0
1625449935.75,0,0,0.0,0.0,1.0
1625449936.21875,0,0,0.0,0.0,1.0
1625449936.6875,0,0,61.64795264553766,0.0,1.0
1625449937.15625,0,0,-54.78362227747082,0.0,1.0
1625449937.625,0,0,180.9452575320729,0.0,1.0
1625449938.09375,0,0,-25.034551740944632,0.0,1.0
1625449938.5625,0,0,299.0698373379468,0.0,1.0
1625449939.03125,0,0,0.0,0.0,1.0
1625449939.5,0,0,62.03101574072262,0.0,1.0
1625449939.96875,0,0,38.69404837121485,0.0,1.0
1625449940.4375,0,0,0.0,0.0,1.0
1625449940.90625,0,0,311.28341605299477,0.0,1.0
1625449941.375,0,0,0.0,0.0,1.0
1625449941.84375,0,0,308.8986416051833,0.0,1.0
1625449942.3125,0,0,8.532589052538663,0.0,1.0
1625449942.78125,0,0,28.76945535374314,0.0,1.0
1625449943.25,0,0,0.0,0.0,1.0
1625449943.71875,0,0,61.8727013949115,0.0,1.0
1625449944.1875,0,0,-34.084772657601775,0.0,1.0
1625449944.65625,0,0,228.40253240156576,0.0,1.0
1625449945.125,0,0,18.96703468397501,0.0,1.0
1625449945.59375,0,0,49.018594047876775,0.0,1.0
1625449946.0625,0,0,-5.918601859952974,0.0,1.0
1625449946.53125,0,0,268.34108882946987,0.0,1.0
1625449947.0,0,0,-32.13429529499495,0.0,1.0
1625449947.46875,0,0,-29.833241257678246,0.0,1.0
1625449947.9375,0,0,119.18658968046026,0.0,1.0
1625449948.40625,0,0,0.0,0.0,1.0
1625449948.875,0,0,182.8497394332626,0.0,1.0
1625449949.34375,0,0,11.84240020963983,0.0,1.0
1625449949.8125,0,0,31.36367403507331,0.0,1.0
1625449950.28125,0,0,156.4252539420085,0.0,1.0
1625449950.75,0,0,0.0,0.0,1.0
1625449951.21875,0,0,275.23650307584643,0.0,1.0
1625449951.6875,0,0,97.86641607325703,0.0,1.0
1625449952.15625,0,0,-61.01941649059512,0.0,1.0
1625449952.625,0,0,29.941194763618483,0.0,1.0
1625449953.09375,0,0,43.96488579125012,0.0,1.0
1625449953.5625,0,0,0.0,0.0,1.0
1625449954.03125,0,0,40.40034217727769,0.0,1.0
1625449954.5,0,0,0.0,0.0,1.0
1625449954.96875,0,0,22.76587471223154,0.0,1.0
1625449955.4375,0,0,68.02477403759649,0.0,1.0
1625449955.90625,0,0,198.21351611997528,0.0,1.0
1625449956.375,0,0,0.0,0.0,1.0
1625449956.84375,0,0,46.69147087144961,0.0,1.0
1625449957.3125,0,0,55.03438036920085,0.0,1.0
1625449957.78125,0,0,0.0,0.0,1.0
1625449958.25,0,0,338.0784225840702,0.0,1.0
1625449958.71875,0,0,0.0,0.0,1.0
1625449959.1875,0,0,33.140468857197895,0.0,1.0
1625449959.65625,0,0,240.8896624718878,0.0,1.0
1625449960.125,0,0,0.0,0.0,1.0
1625449960.59375,0,0,14.121642935495723,0.0,1.0
1625449961.0625,0,0,41.114860066593096,0.0,1.0
1625449961.53125,0,0,0.8706885252869074,0.0,1.0
1625449962.0,0,0,46.362583793303145,0.0,1.0
1625449962.46875,0,0,218.5226793301154,0.0,1.0
1625449962.9375,0,0,-87.62539872370179,0.0,1.0
1625449963.40625,0,0,55.578581903977074,0.0,1.0
1625449963.875,0,0,7.982364406759206,0.0,1.0
1625449964.34375,0,0,220.40945505296227,0.0,1.0
1625449964.8125,0,0,-25.327351089718583,0.0,1.0
1625449965.28125,0,0,73.04584106801782,0.0,1.0
1625449965.75,0,0,0.0,0.0,1.0
1625449966.21875,0,0,250.2884308113991,0.0,1.0
1625449966.6875,0,0,0.0,0.0,1.0
1625449967.15625,0,0,7.937670714422323,0.0,1.0
1625449967.625,0,0,259.2678315889589,0.0,1.0
1625449968.09375,0,0,-39.70300637874999,0.0,1.0
1625449968.5625,0,0,-29.40562813291043,0.0,1.0
1625449969.03125,0,0,28.650912616922778,0.0,1.0
1625449969.5,0,0,-5.9684772711282275,0.0,1.0
1625449969.96875,0,0,110.6954981534683,0.0,1.0
1625449970.4375,0,0,0.7041828346490819,0.0,1.0
1625449970.90625,0,0,36.10157967976552,0.0,1.0
1625449971.375,0,0,0.0,0.0,1.0
1625449971.84375,0,0,36.69669035077747,0.0,1.0
1625449972.3125,0,0,232.3387409967603,0.0,1.0
1625449972.78125,0,0,48.36064505257945,0.0,1.0
1625449973.25,0,0,9.740883121824965,0.0,1.0
1625449973.71875,0,0,323.8358268717317,0.0,1.0
1625449974.1875,0,0,-92.03264625417808,0.0,1.0
1625449974.65625,0,0,52.36359807977485,0.0,1.0
1625449975.125,0,0,0.0,0.0,1.0
1625449975.59375,0,0,48.03841496600187,0.0,1.0
1625449976.0625,0,0,-53.00252878947267,0.0,1.0
1625449976.53125,0,0,330.31243180733253,0.0,1.0
1625449977.0,0,0,-52.998817232581715,0.0,1.0
1625449977.46875,0,0,0.0,0.0,1.0
1625449977.9375,0,0,161.2648068566795,0.0,1.0
1625449978.40625,0,0,0.0,0.0,1.0
1625449978.875,0,0,29.902470623131425,0.0,1.0
1625449979.34375,0,0,26.390600870536502,0.0,1.0
1625449979.8125,0,0,0.0,0.0,1.0
1625449980.28125,0,0,168.09851563398243,0.0,1.0
1625449980.75,0,0,10.83197159869329,0.0,1.0
1625449981.21875,0,0,0.0,0.0,1.0
1625449981.6875,0,0,37.21937721063594,0.0,1.0
1625449982.15625,0,0,18.17920679275378,0.0,1.0
1625449982.625,0,0,12.675545659506836,0.0,1.0
1625449983.09375,0,0,23.42001943551545,0.0,1.0
1625449983.5625,0,0,0.0,0.0,1.0
1625449984.03125,0,0,24.280880205983824,0.0,1.0
1625449984.5,0,0,14.39524579713663,0.0,1.0
1625449984.96875,0,0,6.435333920601389,0.0,1.0
1625449985.4375,0,0,10.789840421238186,0.0,1.0
1625449985.90625,0,0,19.156238067370435,0.0,1.0
1625449986.375,0,0,0.0,0.0,1.0
1625449986.84375,0,0,23.152313163131563,0.0,1.0
1625449987.3125,0,0,22.868936579474035,0.0,1.0
1625449987.78125,0,0,0.0,0.0,1.0
1625449988.25,0,0,20.8629663112712,0.0,1.0
1625449988.71875,0,0,-71.68463563333803,0.0,1.0
1625449989.1875,0,0,401.6875709332648,0.0,1.0
1625449989.65625,0,0,0.0,0.0,1.0
1625449990.125,0,0,31.265686722019026,0.0,1.0
1625449990.59375,0,0,25.604904055688085,0.0,1.0
1625449991.0625,0,0,0.0,0.0,1.0
1625449991.53125,0,0,7.7459460153880935,0.0,1.0
1625449992.0,0,0,55.51601649761334,0.0,1.0
1625449992.46875,0,0,0.0,0.0,1.0
1625449992.9375,0,0,25.779201093343428,0.0,1.0
1625449993.40625,0,0,30.000705968406972,0.0,1.0
1625449993.875,0,0,0.0,0.0,1.0
1625449994.34375,0,0,20.20208399469298,0.0,1.0
1625449994.8125,0,0,0.0,0.0,1.0
1625449995.28125,0,0,28.937666948907097,0.0,1.0
1625449995.75,0,0,0.0,0.0,1.0
1625449996.21875,0,0,22.3848113597524,0.0,1.0
1625449996.6875,0,0,74.92344557682786,0.0,1.0
1625449997.15625,0,0,-36.66246114093832,0.0,1.0
1625449997.625,0,0,50.92799351111413,0.0,1.0
1625449998.09375,0,0,393.4171191658982,0.0,1.0
1625449998.5625,0,0,0.0,0.0,1.0
1625449999.03125,0,0,46.15033394263502,0.0,1.0
1625449999.5,0,0,33.109108386259635,0.0,1.0
1625449999.96875,0,0,267.6927613477488,0.0,1.0
1625450000.4375,0,0,0.0,0.0,1.0
1625450000.90625,0,0,59.20918817287061,0.0,1.0
1625450001.375,0,0,25.395205340075883,0.0,1.0
1625450001.84375,0,0,-15.613187357037468,0.0,1.0
1625450002.3125,0,0,323.35155403819243,0.0,1.0
1625450002.78125,0,0,0.0,0.0,1.0
1625450003.25,0,0,43.09943438584678,0.0,1.0
1625450003.71875,0,0,11.544897634854522,0.0,1.0
1625450004.1875,0,0,118.7166233543242,0.0,1.0
1625450004.65625,0,0,-80.04456828881273,0.0,1.0
1625450005.125,0,0,0.0,0.0,1.0
1625450005.59375,0,0,426.66942561618623,0.0,1.0
1625450006.0625,0,0,-78.62175043908326,0.0,1.0
1625450006.53125,0,0,0.0,0.0,1.0
1625450007.0,0,0,204.7046533497478,0.0,1.0
1625450007.46875,0,0,0.0,0.0,1.0
1625450007.9375,0,0,73.88814101464294,0.0,1.0
1625450008.40625,0,0,24.87014210362206,0.0,1.0
1625450008.875,0,0,71.82401156604543,0.0,1.0
1625450009.34375,0,0,-27.010002056212482,0.0,1.0
1625450009.8125,0,0,292.6233915884077,0.0,1.0
1625450010.28125,0,0,-63.10642517210555,0.0,1.0
1625450010.75,0,0,110.91320918897695,0.0,1.0
1625450011.21875,0,0,13.739648962841457,0.0,1.0
1625450011.6875,0,0,0.0,0.0,1.0
1625450012.15625,0,0,22.73429668721005,0.0,1.0
1625450012.625,0,0,37.021794746988036,0.0,1.0
1625450013.09375,0,0,380.085560096508,0.0,1.0
1625450013.5625,0,0,14.99709694974762,0.0,1.0
1625450014.03125,0,0,0.0,0.0,1.0
1625450014.5,0,0,0.0,0.0,1.0
1625450014.96875,0,0,273.3301605709129,0.0,1.0
1625450015.4375,0,0,-31.266545528187386,0.0,1.0
1625450015.90625,0,0,30.744428552011875,0.0,1.0
1625450016.375,0,0,42.76498406317607,0.0,1.0
1625450016.84375,0,0,323.02572585933376,0.0,1.0
1625450017.3125,0,0,0.0,0.0,1.0
1625450017.78125,0,0,47.71502559559575,0.0,1.0
1625450018.25,0,0,5.058387864453425,0.0,1.0
1625450018.71875,0,0,318.664558726893,0.0,1.0
1625450019.1875,0,0,0.0,0.0,1.0
1625450019.65625,0,0,0.0,0.0,1.0
1625450020.125,0,0,55.69156110270349,0.0,1.0
1625450020.59375,0,0,0.0,0.0,1.0
1625450021.0625,0,0,252.95477225031098,0.0,1.0
1625450021.53125,0,0,0.0,0.0,1.0
1625450022.0,0,0,58.097559264327096,0.0,1.0
1625450022.46875,0,0,0.0,0.0,1.0
1625450022.9375,0,0,52.169801309971206,0.0,1.0
1625450023.40625,0,0,205.44261093567889,0.0,1.0
1625450023.875,0,0,0.0,0.0,1.0
1625450024.34375,0,0,0.0,0.0,1.0
1625450024.8125,0,0,32.85817006664665,0.0,1.0
1625450025.28125,0,0,16.104858570280932,0.0,1.0
1625450025.75,0,0,219.4759598353025,0.0,1.0
1625450026.21875,0,0,-80.78166450406707,0.0,1.0
1625450026.6875,0,0,66.97603189534986,0.0,1.0
1625450027.15625,0,0,-19.98102752260605,0.0,1.0
1625450027.625,0,0,-35.83736358859172,0.0,1.0
1625450028.09375,0,0,332.0329309458631,0.0,1.0
1625450028.5625,0,0,32.99311585928311,0.0,1.0
1625450029.03125,0,0,49.14441394553651,0.0,1.0
1625450029.5,0,0,34.41019527913002,0.0,1.0
1625450029.96875,0,0,-5.727272863253213,0.0,1.0
1625450030.4375,0,0,283.346816320316,0.0,1.0
1625450030.90625,0,0,0.0,0.0,1.0
1625450031.375,0,0,44.73889752207043,0.0,1.0
1625450031.84375,0,0,69.57209589527821,0.0,1.0
1625450032.3125,0,0,239.68103995701043,0.0,1.0
1625450032.78125,0,0,-54.20427623991851,0.0,1.0
1625450033.25,0,0,64.43617296649167,0.0,1.0
1625450033.71875,0,0,55.76300768088251,0.0,1.0
1625450034.1875,0,0,242.8013371475294,0.0,1.0
1625450034.65625,0,0,0.0,0.0,1.0
1625450035.125,0,0,-18.147704334929696,0.0,1.0
1625450035.59375,0,0,76.53568113530652,0.0,1.0
1625450036.0625,0,0,5.830629222682407,0.0,1.0
1625450036.53125,0,0,224.4183772467623,0.0,1.0
1625450037.0,0,0,-34.186247686027905,0.0,1.0
1625450037.46875,0,0,24.205776817714185,0.0,1.0
1625450037.9375,0,0,37.16896480369651,0.0,1.0
1625450038.40625,0,0,282.8738228416236,0.0,1.0
1625450038.875,0,0,0.0,0.0,1.0
1625450039.34375,0,0,34.24507724230174,0.0,1.0
1625450039.8125,0,0,0.0,0.0,1.0
1625450040.28125,0,0,0.0,0.0,1.0
1625450040.75,0,0,97.67382901862707,0.0,1.0
1625450041.21875,0,0,0.0,0.0,1.0
1625450041.6875,0,0,0.0,0.0,1.0
1625450042.15625,0,0,53.04724291889793,0.0,1.0
1625450042.625,0,0,31.814389089273657,0.0,1.0
1625450043.09375,0,0,-8.037659030876375,0.0,1.0
1625450043.5625,0,0,19.00247573337319,0.0,1.0
1625450044.03125,0,0,0.0,0.0,1.0
1625450044.5,0,0,23.403614731115006,0.0,1.0
1625450044.96875,0,0,68.34652505982767,0.0,1.0
1625450045.4375,0,0,0.0,0.0,1.0
1625450045.90625,0,0,24.850740258089534,0.0,1.0
1625450046.375,0,0,27.67170061672162,0.0,1.0
1625450046.84375,0,0,-13.171339460555522,0.0,1.0
1625450047.3125,0,0,116.97859160358738,0.0,1.0
1625450047.78125,0,0,62.910338021610784,0.0,1.0
1625450048.25,0,0,16.611412452492605,0.0,1.0
1625450048.71875,0,0,0.0,0.0,1.0
1625450049.1875,0,0,60.32504046229664,0.0,1.0
1625450049.65625,0,0,0.0,0.0,1.0
1625450050.125,0,0,0.0,0.0,1.0
1625450050.59375,0,0,0.0,0.0,1.0
1625450051.0625,0,0,0.0,0.0,1.0
1625450051.53125,0,0,1.4730250187352485,0.0,1.0
1625450052.0,0,0,27.208165278580374,0.0,1.0
1625450052.46875,0,0,0.0,0.0,1.0
1625450052.9375,0,0,0.0,0.0,1.0
1625450053.40625,0,0,223.44182507747774,0.0,1.0
1625450053.875,0,0,-5.217487616553356,0.0,1.0
1625450054.34375,0,0,-10.269337284624926,0.0,1.0
1625450054.8125,0,0,31.636156108035692,0.0,1.0
1625450055.28125,0,0,0.0,0.0,1.0
1625450055.75,0,0,35.59470269310136,0.0,1.0
1625450056.21875,0,0,23.282646945381863,0.0,1.0
1625450056.6875,0,0,0.0,0.0,1.0
1625450057.15625,0,0,225.39181515249513,0.0,1.0
1625450057.625,0,0,-23.530125161902003,0.0,1.0
1625450058.09375,0,0,33.391834148491576,0.0,1.0
1625450058.5625,0,0,0.0,0.0,1.0
1625450059.03125,0,0,261.02774601318043,0.0,1.0
1625450059.5,0,0,-55.10935694865613,0.0,1.0
1625450059.96875,0,0,44.400758865181,0.0,1.0
1625450060.4375,0,0,0.0,0.0,1.0
1625450060.90625,0,0,278.8106818925986,0.0,1.0
1625450061.375,0,0,8.392233917663827,0.0,1.0
1625450061.84375,0,0,57.508722570450274,0.0,1.0
1625450062.3125,0,0,-26.422831528698495,0.0,1.0
1625450062.78125,0,0,-20.930186446217643,0.0,1.0
1625450063.25,0,0,207.9988610790815,0.0,1.0
1625450063.71875,0,0,-49.19587702209658,0.0,1.0
1625450064.1875,0,0,63.93345744954242,0.0,1.0
1625450064.65625,0,0,0.0,0.0,1.0
1625450065.125,0,0,233.50818349366136,0.0,1.0
1625450065.59375,0,0,0.0,0.0,1.0
1625450066.0625,0,0,23.422835390150112,0.0,1.0
1625450066.53125,0,0,20.478095475730353,0.0,1.0
1625450067.0,0,0,0.0,0.0,1.0
1625450067.46875,0,0,0.0,0.0,1.0
1625450067.9375,0,0,34.23195728294609,0.0,1.0
1625450068.40625,0,0,8.126018005261548,0.0,1.0
1625450068.875,0,0,11.416483738044723,0.0,1.0
1625450069.34375,0,0,265.0682070050179,0.0,1.0
1625450069.8125,0,0,-73.84637506883706,0.0,1.0
1625450070.28125,0,0,48.43429848460936,0.0,1.0
1625450070.75,0,0,-3.2556631334009825,0.0,1.0
1625450071.21875,0,0,43.44498342678463,0.0,1.0
1625450071.6875,0,0,250.67695602114574,0.0,1.0
1625450072.15625,0,0,-4.70505092299868,0.0,1.0
1625450072.625,0,0,11.831155629691073,0.0,1.0
1625450073.09375,0,0,33.90747190833869,0.0,1.0
1625450073.5625,0,0,287.59189028904285,0.0,1.0
1625450074.03125,0,0,0.0,0.0,1.0
1625450074.5,0,0,40.99586625995957,0.0,1.0
1625450074.96875,0,0,94.69776631841565,0.0,1.0
1625450075.4375,0,0,255.62795855461712,0.0,1.0
1625450075.90625,0,0,-21.757652096338745,0.0,1.0
1625450076.375,0,0,24.048084631046663,0.0,1.0
1625450076.84375,0,0,-61.699644945865884,0.0,1.0
1625450077.3125,0,0,353.89115323359675,0.0,1.0
1625450077.78125,0,0,0.0,0.0,1.0
1625450078.25,0,0,17.54916706642393,0.0,1.0
1625450078.71875,0,0,41.20674758146714,0.0,1.0
1625450079.1875,0,0,45.562727721789166,0.0,1.0
1625450079.65625,0,0,0.0,0.0,1.0
1625450080.125,0,0,2.371407144258323,0.0,1.0
1625450080.59375,0,0,33.92133145385256,0.0,1.0
1625450081.0625,0,0,0.0,0.0,1.0
1625450081.53125,0,0,303.8915362679758,0.0,1.0
1625450082.0,0,0,-42.08080200831706,0.0,1.0
1625450082.46875,0,0,44.851116757977564,0.0,1.0
1625450082.9375,0,0,-5.495501381326045,0.0,1.0
1625450083.40625,0,0,358.60313524391677,0.0,1.0
1625450083.875,0,0,0.0,0.0,1.0
1625450084.34375,0,0,39.457238635106066,0.0,1.0
1625450084.8125,0,0,45.49379438838157,0.0,1.0
1625450085.28125,0,0,221.9383741393465,0.0,1.0
1625450085.75,0,0,0.2882034535571968,0.0,1.0
1625450086.21875,0,0,54.46188128777763,0.0,1.0
1625450086.6875,0,0,0.0,0.0,1.0
1625450087.15625,0,0,305.3263152446862,0.0,1.0
1625450087.625,0,0,0.0,0.0,1.0
1625450088.09375,0,0,29.148447558538695,0.0,1.0
1625450088.5625,0,0,40.80440010912629,0.0,1.0
1625450089.03125,0,0,64.91369236490752,0.0,1.0
1625450089.5,0,0,219.5683051303942,0.0,1.0
1625450089.96875,0,0,83.15688413646369,0.0,1.0
1625450090.4375,0,0,0.0,0.0,1.0
1625450090.90625,0,0,17.128045679932995,0.0,1.0
1625450091.375,0,0,211.85567791805352,0.0,1.0
1625450091.84375,0,0,-6.149008765946081,0.0,1.0
1625450092.3125,0,0,44.398868251895735,0.0,1.0
1625450092.78125,0,0,67.15708866791331,0.0,1.0
1625450093.25,0,0,180.13969239971428,0.0,1.0
1625450093.71875,0,0,0.0,0.0,1.0
1625450094.1875,0,0,98.85998886894748,0.0,1.0
1625450094.65625,0,0,-5.019124481231514,0.0,1.0
1625450095.125,0,0,0.0,0.0,1.0
1625450095.59375,0,0,293.5670133336404,0.0,1.0
1625450096.0625,0,0,-35.207536045717205,0.0,1.0
1625450096.53125,0,0,0.0,0.0,1.0
1625450097.0,0,0,67.60249869429559,0.0,1.0
1625450097.46875,0,0,128.75088704723586,0.0,1.0
1625450097.9375,0,0,0.0,0.0,1.0
1625450098.40625,0,0,34.540548652348875,0.0,1.0
1625450098.875,0,0,-3.0738039670062696,0.0,1.0
1625450099.34375,0,0,70.56452109651194,0.0,1.0
1625450099.8125,0,0,72.03379916692592,0.0,1.0
1625450100.28125,0,0,56.83280794637949,0.0,1.0
1625450100.75,0,0,83.527200475252,0.0,1.0
1625450101.21875,0,0,52.788863041061255,0.0,1.0
1625450101.6875,0,0,48.1605234582262,0.0,1.0
1625450102.15625,0,0,76.26038488670464,0.0,1.0
1625450102.625,0,0,25.699657032235937,0.0,1.0
1625450103.09375,0,0,46.4559292392633,0.0,1.0
1625450103.5625,0,0,16.76278283783825,0.0,1.0
1625450104.03125,0,0,0.0,0.0,1.0
1625450104.5,0,0,118.58152361251163,0.0,1.0
1625450104.96875,0,0,-26.57496472896855,0.0,1.0
1625450105.4375,0,0,36.97961008277403,0.0,1.0
1625450105.90625,0,0,13.41533612313444,0.0,1.0
1625450106.375,0,0,15.809404931850786,0.0,1.0
1625450106.84375,0,0,115.0145538653863,0.0,1.0
1625450107.3125,0,0,0.0,0.0,1.0
1625450107.78125,0,0,2.3373730560283104,0.0,1.0
1625450108.25,0,0,-43.9333868186778,0.0,1.0
1625450108.71875,0,0,0.0,0.0,1.0
1625450109.1875,0,0,98.72595248277024,0.0,1.0
1625450109.65625,0,0,260.30497240899285,0.0,1.0
1625450110.125,0,0,0.0,0.0,1.0
1625450110.59375,0,0,44.87095554549294,0.0,1.0
1625450111.0625,0,0,165.0037785762595,0.0,1.0
1625450111.53125,0,0,0.0,0.0,1.0
1625450112.0,0,0,71.68890586430749,0.0,1.0
1625450112.46875,0,0,100.20195869778314,0.0,1.0
1625450112.9375,0,0,0.0,0.0,1.0
1625450113.40625,0,0,-3.8897237034692194,0.0,1.0
1625450113.875,0,0,-12.645243892744642,0.0,1.0
1625450114.34375,0,0,4.624796510102794,0.0,1.0
1625450114.8125,0,0,49.24208748988275,0.0,1.0
1625450115.28125,0,0,0.0,0.0,1.0
1625450115.75,0,0,73.02184077825785,0.0,1.0
1625450116.21875,0,0,322.21380576032453,0.0,1.0
1625450116.6875,0,0,0.0,0.0,1.0
1625450117.15625,0,0,0.0,0.0,1.0
1625450117.625,0,0,89.98931808118428,0.0,1.0
1625450118.09375,0,0,314.01981071628865,0.0,1.0
1625450118.5625,0,0,0.0,0.0,1.0
1625450119.03125,0,0,30.63885033645003,0.0,1.0
1625450119.5,0,0,33.21255743051287,0.0,1.0
1625450119.96875,0,0,0.0,0.0,1.0
1625450120.4375,0,0,292.1356217629897,0.0,1.0
1625450120.90625,0,0,0.0,0.0,1.0
1625450121.375,0,0,20.71620011303798,0.0,1.0
1625450121.84375,0,0,48.95925390059949,0.0,1.0
1625450122.3125,0,0,-14.73553627480781,0.0,1.0
1625450122.78125,0,0,-37.41875920011304,0.0,1.0
1625450123.25,0,0,266.44780722216365,0.0,1.0
1625450123.71875,0,0,-50.20715723637495,0.0,1.0
1625450124.1875,0,0,28.75302750127296,0.0,1.0
1625450124.65625,0,0,247.75586442892126,0.0,1.0
1625450125.125,0,0,0.0,0.0,1.0
1625450125.59375,0,0,0.0,0.0,1.0
1625450126.0625,0,0,0.0,0.0,1.0
1625450126.53125,0,0,244.3783943223897,0.0,1.0
1625450127.0,0,0,0.0,0.0,1.0
1625450127.46875,0,0,12.013040720726114,0.0,1.0
1625450127.9375,0,0,12.443263480151215,0.0,1.0
1625450128.40625,0,0,28.53619228014358,0.0,1.0
1625450128.875,0,0,186.92495525805558,0.0,1.0
1625450129.34375,0,0,0.0,0.0,1.0
1625450129.8125,0,0,0.0,0.0,1.0
1625450130.28125,0,0,42.9983124040243,0.0,1.0
1625450130.75,0,0,0.8100611762561363,0.0,1.0
1625450131.21875,0,0,5.962174470313247,0.0,1.0
1625450131.6875,0,0,139.7045868993255,0.0,1.0
1625450132.15625,0,0,-0.5128378173136294,0.0,1.0
1625450132.625,0,0,252.85569691230026,0.0,1.0
1625450133.09375,0,0,2.327901674639225,0.0,1.0
1625450133.5625,0,0,0.0,0.0,1.0
1625450134.03125,0,0,9.50264352607963,0.0,1.0
1625450134.5,0,0,215.3076862861324,0.0,1.0
1625450134.96875,0,0,0.0,0.0,1.0
1625450135.4375,0,0,43.800954200450654,0.0,1.0
1625450135.90625,0,0,0.0,0.0,1.0
1625450136.375,0,0,30.26595958830133,0.0,1.0
1625450136.84375,0,0,128.53435369354153,0.0,1.0
1625450137.3125,0,0,-31.631865678446804,0.0,1.0
1625450137.78125,0,0,52.67131137079349,0.0,1.0
1625450138.25,0,0,0.0,0.0,1.0
1625450138.71875,0,0,237.23659162884832,0.0,1.0
1625450139.1875,0,0,0.0,0.0,1.0
1625450139.65625,0,0,-2.781878974707106,0.0,1.0
1625450140.125,0,0,57.24125231552027,0.0,1.0
1625450140.59375,0,0,44.13800284649066,0.0,1.0
1625450141.0625,0,0,194.8942188257096,0.0,1.0
1625450141.53125,0,0,0.0,0.0,1.0
1625450142.0,0,0,0.0,0.0,1.0
1625450142.46875,0,0,69.77924097773699,0.0,1.0
1625450142.9375,0,0,212.95924379922715,0.0,1.0
1625450143.40625,0,0,-6.395608746874271,0.0,1.0
1625450143.875,0,0,55.945556726509196,0.0,1.0
1625450144.34375,0,0,0.0,0.0,1.0
1625450144.8125,0,0,137.6948159720727,0.0,1.0
1625450145.28125,0,0,0.0,0.0,1.0
1625450145.75,0,0,0.0,0.0,1.0
1625450146.21875,0,0,0.0,0.0,1.0
1625450146.6875,0,0,45.36623712809737,0.0,1.0
1625450147.15625,0,0,32.02664353586806,0.0,1.0
1625450147.625,0,0,3.60655978028025,0.0,1.0
1625450148.09375,0,0,0.0,0.0,1.0
1625450148.5625,0,0,0.0,0.0,1.0
1625450149.03125,0,0,46.22705989366962,0.0,1.0
1625450149.5,0,0,66.21632336075618,0.0,1.0
1625450149.96875,0,0,0.0,0.0,1.0
1625450150.4375,0,0,40.89989185686484,0.0,1.0
1625450150.90625,0,0,179.15380142442464,0.0,1.0
1625450151.375,0,0,0.0,0.0,1.0
1625450151.84375,0,0,46.9352696502896,0.0,1.0
1625450152.3125,0,0,0.0,0.0,1.0
1625450152.78125,0,0,0.0,0.0,1.0
1625450153.25,0,0,56.497911442084614,0.0,1.0
1625450153.71875,0,0,109.50116883019113,0.0,1.0
1625450154.1875,0,0,2.13662650445375,0.0,1.0
1625450154.65625,0,0,0.0,0.0,1.0
1625450155.125,0,0,28.325589486162045,0.0,1.0
1625450155.59375,0,0,15.08110402709567,0.0,1.0
1625450156.0625,0,0,0.0,0.0,1.0
1625450156.53125,0,0,70.1505227903524,0.0,1.0
1625450157.0,0,0,33.553569732154784,0.0,1.0
1625450157.46875,0,0,0.0,0.0,1.0
1625450157.9375,0,0,44.68533559558345,0.0,1.0
1625450158.40625,0,0,0.0,0.0,1.0
1625450158.875,0,0,80.38061658985211,0.0,1.0
1625450159.34375,0,0,40.69373671318815,0.0,1.0
1625450159.8125,0,0,9.44565120113135,0.0,1.0
1625450160.28125,0,0,39.822168368403986,0.0,1.0
1625450160.75,0,0,31.50418205131398,0.0,1.0
1625450161.21875,0,0,0.0,0.0,1.0
1625450161.6875,0,0,12.861889927898847,0.0,1.0
1625450162.15625,0,0,0.0,0.0,1.0
1625450162.625,0,0,40.59527198458806,0.0,1.0
1625450163.09375,0,0,9.935833439079865,0.0,1.0
1625450163.5625,0,0,0.0,0.0,1.0
1625450164.03125,0,0,23.643035833995913,0.0,1.0
1625450164.5,0,0,0.0,0.0,1.0
1625450164.96875,0,0,14.435440197237366,0.0,1.0
1625450165.4375,0,0,81.27369123200722,0.0,1.0
1625450165.90625,0,0,171.67967466912413,0.0,1.0
1625450166.375,0,0,-30.14697893878775,0.0,1.0
1625450166.84375,0,0,82.40462444334433,0.0,1.0
1625450167.3125,0,0,0.0,0.0,1.0
1625450167.78125,0,0,39.261032713875835,0.0,1.0
1625450168.25,0,0,-30.859414421516487,0.0,1.0
1625450168.71875,0,0,58.84146487964661,0.0,1.0
1625450169.1875,0,0,224.62285898488986,0.0,1.0
1625450169.65625,0,0,0.0,0.0,1.0
1625450170.125,0,0,62.97279818205033,0.0,1.0
1625450170.59375,0,0,0.0,0.0,1.0
1625450171.0625,0,0,0.0,0.0,1.0
1625450171.53125,0,0,0.0,0.0,1.0
1625450172.0,0,0,39.95389635280481,0.0,1.0
1625450172.46875,0,0,-28.07341201876734,0.0,1.0
1625450172.9375,0,0,84.56199700641706,0.0,1.0
1625450173.40625,0,0,67.67884515536907,0.0,1.0
1625450173.875,0,0,19.864472017923724,0.0,1.0
1625450174.34375,0,0,25.331746484337955,0.0,1.0
1625450174.8125,0,0,0.0,0.0,1.0
1625450175.28125,0,0,42.092259541592114,0.0,1.0
1625450175.75,0,0,230.68806891451774,0.0,1.0
1625450176.21875,0,0,25.529514453761543,0.0,1.0
1625450176.6875,0,0,20.57746264140573,0.0,1.0
1625450177.15625,0,0,41.974290222567554,0.0,1.0
1625450177.625,0,0,112.9367025642194,0.0,1.0
1625450178.09375,0,0,17.044657456171844,0.0,1.0
1625450178.5625,0,0,2.7189674339113914,0.0,1.0
1625450179.03125,0,0,13.733806789280669,0.0,1.0
1625450179.5,0,0,133.57808834941093,0.0,1.0
1625450179.96875,0,0,0.0,0.0,1.0
1625450180.4375,0,0,-13.38464223774842,0.0,1.0
1625450180.90625,0,0,171.0237771260303,0.0,1.0
1625450181.375,0,0,0.0,0.0,1.0
1625450181.84375,0,0,22.90505916315287,0.0,1.0
1625450182.3125,0,0,35.15041558787919,0.0,1.0
1625450182.78125,0,0,30.11040384093276,0.0,1.0
1625450183.25,0,0,154.67292268747676,0.0,1.0
1625450183.71875,0,0,0.0,0.0,1.0
1625450184.1875,0,0,3.3416676008819914,0.0,1.0
1625450184.65625,0,0,28.528442613406508,0.0,1.0
1625450185.125,0,0,217.56925837621787,0.0,1.0
1625450185.59375,0,0,0.0,0.0,1.0
1625450186.0625,0,0,65.5950817232545,0.0,1.0
1625450186.53125,0,0,0.0,0.0,1.0
1625450187.0,0,0,118.47962701323777,0.0,1.0
1625450187.46875,0,0,0.0,0.0,1.0
1625450187.9375,0,0,-10.280752113784438,0.0,1.0
1625450188.40625,0,0,41.332031993431414,0.0,1.0
1625450188.875,0,0,-19.156499660307905,0.0,1.0
1625450189.34375,0,0,186.48772962886042,0.0,1.0
1625450189.8125,0,0,0.0,0.0,1.0
1625450190.28125,0,0,12.522352126455031,0.0,1.0
1625450190.75,0,0,5.3228350106804045,0.0,1.0
1625450191.21875,0,0,110.0889247289476,0.0,1.0
1625450191.6875,0,0,-0.4785084007611055,0.0,1.0
1625450192.15625,0,0,24.522444789597902,0.0,1.0
1625450192.625,0,0,-12.567804744034841,0.0,1.0
1625450193.09375,0,0,132.95465427310415,0.0,1.0
1625450193.5625,0,0,0.0,0.0,1.0
1625450194.03125,0,0,12.320666179721709,0.0,1.0
1625450194.5,0,0,23.479966951986317,0.0,1.0
1625450194.96875,0,0,-13.755561749618384,0.0,1.0
1625450195.4375,0,0,236.45279179999937,0.0,1.0
1625450195.90625,0,0,14.452860823366104,0.0,1.0
1625450196.375,0,0,0.0,0.0,1.0
1625450196.84375,0,0,9.557262285109486,0.0,1.0
1625450197.3125,0,0,234.15679453351032,0.0,1.0
1625450197.78125,0,0,-64.85052179895351,0.0,1.0
1625450198.25,0,0,31.7732385980709,0.0,1.0
1625450198.71875,0,0,-4.9262270110817035,0.0,1.0
1625450199.1875,0,0,191.43165411837975,0.0,1.0
1625450199.65625,0,0,23.78629218598448,0.0,1.0
1625450200.125,0,0,23.316882638644945,0.0,1.0
1625450200.59375,0,0,0.0,0.0,1.0
1625450201.0625,0,0,0.0,0.0,1.0
1625450201.53125,0,0,0.0,0.0,1.0
1625450202.0,0,0,20.666598113338186,0.0,1.0
1625450202.46875,0,0,6.033295892575585,0.0,1.0
1625450202.9375,0,0,-4.216120246441924,0.0,1.0
1625450203.40625,0,0,179.94684327109346,0.0,1.0
1625450203.875,0,0,41.98691685713148,0.0,1.0
1625450204.34375,0,0,0.0,0.0,1.0
1625450204.8125,0,0,-1.5731320882804654,0.0,1.0
1625450205.28125,0,0,288.49910695329004,0.0,1.0
1625450205.75,0,0,0.0,0.0,1.0
1625450206.21875,0,0,44.87756444631362,0.0,1.0
1625450206.6875,0,0,0.0,0.0,1.0
1625450207.15625,0,0,161.65698826347014,0.0,1.0
1625450207.625,0,0,0.0,0.0,1.0
1625450208.09375,0,0,13.87107382017152,0.0,1.0
1625450208.5625,0,0,16.794808267819292,0.0,1.0
1625450209.03125,0,0,-40.94875178524891,0.0,1.0
1625450209.5,0,0,321.011569643809,0.0,1.0
1625450209.96875,0,0,39.46060750105148,0.0,1.0
1625450210.4375,0,0,0.0,0.0,1.0
1625450210.90625,0,0,-0.819885641926701,0.0,1.0
1625450211.375,0,0,305.8498273400297,0.0,1.0
1625450211.84375,0,0,0.0,0.0,1.0
1625450212.3125,0,0,53.844458270608406,0.0,1.0
1625450212.78125,0,0,3.1790831346263335,0.0,1.0
1625450213.25,0,0,240.59211218692204,0.0,1.0
1625450213.71875,0,0,-42.40668712191006,0.0,1.0
1625450214.1875,0,0,48.24043353231505,0.0,1.0
1625450214.65625,0,0,0.0,0.0,1.0
1625450215.125,0,0,-33.9189950007022,0.0,1.0
1625450215.59375,0,0,151.03750200766797,0.0,1.0
1625450216.0625,0,0,-2.4611155791771826,0.0,1.0
1625450216.53125,0,0,31.888144664560958,0.0,1.0
1625450217.0,0,0,0.0,0.0,1.0
1625450217.46875,0,0,0.0,0.0,1.0
1625450217.9375,0,0,92.34289002759077,0.0,1.0
1625450218.40625,0,0,19.140656812393768,0.0,1.0
1625450218.875,0,0,0.0,0.0,1.0
1625450219.34375,0,0,198.77320385932325,0.0,1.0
1625450219.8125,0,0,0.0,0.0,1.0
1625450220.28125,0,0,46.78413516355412,0.0,1.0
1625450220.75,0,0,0.0,0.0,1.0
1625450221.21875,0,0,54.01077537255986,0.0,1.0
1625450221.6875,0,0,63.72488358560961,0.0,1.0
1625450222.15625,0,0,-32.235238647837676,0.0,1.0
1625450222.625,0,0,95.1750879830662,0.0,1.0
1625450223.09375,0,0,0.0,0.0,1.0
1625450223.5625,0,0,146.83561387730902,0.0,1.0
1625450224.03125,0,0,-35.35258926023635,0.0,1.0
1625450224.5,0,0,28.682066370156754,0.0,1.0
1625450224.96875,0,0,0.0,0.0,1.0
1625450225.4375,0,0,27.46445036581869,0.0,1.0
1625450225.90625,0,0,31.368806926233713,0.0,1.0
1625450226.375,0,0,0.0,0.0,1.0
1625450226.84375,0,0,25.6262128270569,0.0,1.0
1625450227.3125,0,0,0.0,0.0,1.0
1625450227.78125,0,0,29.069582543483573,0.0,1.0
1625450228.25,0,0,22.639239614928954,0.0,1.0
1625450228.71875,0,0,0.0,0.0,1.0
1625450229.1875,0,0,25.553769097246985,0.0,1.0
1625450229.65625,0,0,0.0,0.0,1.0
1625450230.125,0,0,22.169565921033218,0.0,1.0
1625450230.59375,0,0,23.13438611610034,0.0,1.0
1625450231.0625,0,0,0.0,0.0,1.0
1625450231.53125,0,0,21.845135627737296,0.0,1.0
1625450232.0,0,0,0.0,0.0,1.0
1625450232.46875,0,0,20.524827417726392,0.0,1.0
1625450232.9375,0,0,49.207981889440276,0.0,1.0
1625450233.40625,0,0,0.0,0.0,1.0
1625450233.875,0,0,0.0,0.0,1.0
1625450234.34375,0,0,23.473976301550074,0.0,1.0
1625450234.8125,0,0,3.182258617057536,0.0,1.0
1625450235.28125,0,0,274.7846744994834,0.0,1.0
1625450235.75,0,0,-14.202828750962455,0.0,1.0
1625450236.21875,0,0,69.47060331859733,0.0,1.0
1625450236.6875,0,0,370.3158824472055,0.0,1.0
1625450237.15625,0,0,-81.26449487907672,0.0,1.0
1625450237.625,0,0,28.084444457747992,0.0,1.0
1625450238.09375,0,0,24.79175958104477,0.0,1.0
1625450238.5625,0,0,90.24484901453413,0.0,1.0
1625450239.03125,0,0,99.41334193333293,0.0,1.0
1625450239.5,0,0,0.0,0.0,1.0
1625450239.96875,0,0,248.3366247806998,0.0,1.0
1625450240.4375,0,0,0.0,0.0,1.0
1625450240.90625,0,0,18.992542794568298,0.0,1.0
1625450241.375,0,0,43.66225931291576,0.0,1.0
1625450241.84375,0,0,0.0,0.0,1.0
1625450242.3125,0,0,109.10406371356208,0.0,1.0
1625450242.78125,0,0,12.907149251845704,0.0,1.0
1625450243.25,0,0,-8.005515501226274,0.0,1.0
1625450243.71875,0,0,39.134702296707914,0.0,1.0
1625450244.1875,0,0,-12.046698423062486,0.0,1.0
1625450244.65625,0,0,0.0,0.0,1.0
1625450245.125,0,0,50.417666215889426,0.0,1.0
1625450245.59375,0,0,5.704751377072426,0.0,1.0
1625450246.0625,0,0,171.75814213802994,0.0,1.0
1625450246.53125,0,0,0.0,0.0,1.0
1625450247.0,0,0,-1.1803568826859203,0.0,1.0
1625450247.46875,0,0,21.255510596786767,0.0,1.0
1625450247.9375,0,0,0.0,0.0,1.0
1625450248.40625,0,0,0.0,0.0,1.0
1625450248.875,0,0,51.39705429101148,0.0,1.0
1625450249.34375,0,0,31.71285568451499,0.0,1.0
1625450249.8125,0,0,-12.014673484067144,0.0,1.0
1625450250.28125,0,0,160.71474581373334,0.0,1.0
1625450250.75,0,0,-43.632250049583384,0.0,1.0
1625450251.21875,0,0,0.0,0.0,1.0
1625450251.6875,0,0,24.02039299034866,0.0,1.0
1625450252.15625,0,0,0.0,0.0,1.0
1625450252.625,0,0,91.79168918376921,0.0,1.0
1625450253.09375,0,0,22.970638513165188,0.0,1.0
1625450253.5625,0,0,0.0,0.0,1.0
1625450254.03125,0,0,9.727147535421881,0.0,1.0
1625450254.5,0,0,327.8231092557383,0.0,1.0
1625450254.96875,0,0,-3.9989620270627,0.0,1.0
1625450255.4375,0,0,97.98349831977532,0.0,1.0
1625450255.90625,0,0,0.0,0.0,1.0
1625450256.375,0,0,218.6711574775132,0.0,1.0
1625450256.84375,0,0,0.0,0.0,1.0
1625450257.3125,0,0,0.0,0.0,1.0
1625450257.78125,0,0,41.9056591654998,0.0,1.0
1625450258.25,0,0,2.288197196721197,0.0,1.0
1625450258.71875,0,0,58.81197534540368,0.0,1.0
1625450259.1875,0,0,0.0,0.0,1.0
1625450259.65625,0,0,34.353473125011035,0.0,1.0
1625450260.125,0,0,0.0,0.0,1.0
1625450260.59375,0,0,44.724235521153034,0.0,1.0
1625450261.0625,0,0,134.41155406529586,0.0,1.0
1625450261.53125,0,0,-38.64860531721854,0.0,1.0
1625450262.0,0,0,26.967605716720495,0.0,1.0
1625450262.46875,0,0,0.0,0.0,1.0
1625450262.9375,0,0,183.71920094030088,0.0,1.0
1625450263.40625,0,0,17.51878298601385,0.0,1.0
1625450263.875,0,0,0.0,0.0,1.0
1625450264.34375,0,0,-1.976211114353906,0.0,1.0
1625450264.8125,0,0,78.70306317040662,0.0,1.0
1625450265.28125,0,0,0.0,0.0,1.0
1625450265.75,0,0,22.24176273818604,0.0,1.0
1625450266.21875,0,0,0.0,0.0,1.0
1625450266.6875,0,0,255.67909944991231,0.0,1.0
1625450267.15625,0,0,0.0,0.0,1.0
1625450267.625,0,0,69.12068308561823,0.0,1.0
1625450268.09375,0,0,-28.232599830466956,0.0,1.0
1625450268.5625,0,0,319.83108850756685,0.0,1.0
1625450269.03125,0,0,0.0,0.0,1.0
1625450269.5,0,0,38.097594712417724,0.0,1.0
1625450269.96875,0,0,8.474139468966305,0.0,1.0
1625450270.4375,0,0,0.0,0.0,1.0
1625450270.90625,0,0,259.03011157684716,0.0,1.0
1625450271.375,0,0,44.927540791032555,0.0,1.0
1625450271.84375,0,0,0.0,0.0,1.0
1625450272.3125,0,0,0.0,0.0,1.0
1625450272.78125,0,0,137.17835850970272,0.0,1.0
1625450273.25,0,0,18.18442630969542,0.0,1.0
1625450273.71875,0,0,24.475569998445106,0.0,1.0
1625450274.1875,0,0,0.0,0.0,1.0
1625450274.65625,0,0,193.21067396700832,0.0,1.0
1625450275.125,0,0,0.0,0.0,1.0
1625450275.59375,0,0,0.0,0.0,1.0
1625450276.0625,0,0,18.347993340657546,0.0,1.0
1625450276.53125,0,0,37.818287440238514,0.0,1.0
1625450277.0,0,0,66.02826231133048,0.0,1.0
1625450277.46875,0,0,79.71927005807486,0.0,1.0
1625450277.9375,0,0,0.0,0.0,1.0
1625450278.40625,0,0,0.0,0.0,1.0
1625450278.875,0,0,20.371789215783085,0.0,1.0
1625450279.34375,0,0,0.0,0.0,1.0
1625450279.8125,0,0,44.31179831871235,0.0,1.0
1625450280.28125,0,0,47.040446761169456,0.0,1.0
1625450280.75,0,0,-36.78154131762344,0.0,1.0
1625450281.21875,0,0,112.92112278956664,0.0,1.0
1625450281.6875,0,0,2.1197376223706854,0.0,1.0
1625450282.15625,0,0,0.0,0.0,1.0
1625450282.625,0,0,25.289969743920505,0.0,1.0
1625450283.09375,0,0,0.0,0.0,1.0
1625450283.5625,0,0,22.667884036470646,0.0,1.0
1625450284.03125,0,0,22.35972807259632,0.0,1.0
1625450284.5,0,0,0.0,0.0,1.0
1625450284.96875,0,0,24.773619621354186,0.0,1.0
1625450285.4375,0,0,6.001093003777877,0.0,1.0
1625450285.90625,0,0,19.255966093477245,0.0,1.0
1625450286.375,0,0,0.0,0.0,1.0
1625450286.84375,0,0,0.0,0.0,1.0
1625450287.3125,0,0,142.7736023917404,0.0,1.0
1625450287.78125,0,0,-26.016718450135677,0.0,1.0
1625450288.25,0,0,0.0,0.0,1.0
1625450288.71875,0,0,151.7469077920262,0.0,1.0
1625450289.1875,0,0,15.014521037972749,0.0,1.0
1625450289.65625,0,0,5.4890098133635075,0.0,1.0
1625450290.125,0,0,49.55912577835036,0.0,1.0
1625450290.59375,0,0,35.03283406887281,0.0,1.0
1625450291.0625,0,0,0.0,0.0,1.0
1625450291.53125,0,0,35.36478562278627,0.0,1.0
1625450292.0,0,0,0.0,0.0,1.0
1625450292.46875,0,0,43.25608342056187,0.0,1.0
1625450292.9375,0,0,0.0,0.0,1.0
1625450293.40625,0,0,16.4926167755049,0.0,1.0
1625450293.875,0,0,142.84975223716307,0.0,1.0
1625450294.34375,0,0,0.0,0.0,1.0
1625450294.8125,0,0,34.53157534915217,0.0,1.0
1625450295.28125,0,0,35.171346995040224,0.0,1.0
1625450295.75,0,0,0.0,0.0,1.0
1625450296.21875,0,0,31.81476895149431,0.0,1.0
1625450296.6875,0,0,0.0,0.0,1.0
1625450297.15625,0,0,247.85773679179653,0.0,1.0
1625450297.625,0,0,302.93383601983953,0.0,1.0
1625450298.09375,0,0,0.0,0.0,1.0
1625450298.5625,0,0,40.79966330886525,0.0,1.0
1625450299.03125,0,0,76.11124061509307,0.0,1.0
1625450299.5,0,0,-8.21018785706945,0.0,1.0
1625450299.96875,0,0,117.42305327405099,0.0,1.0
1625450300.4375,0,0,39.46607860087058,0.0,1.0
1625450300.90625,0,0,38.3344749036817,0.0,1.0
1625450301.375,0,0,9.766765938227502,0.0,1.0
1625450301.84375,0,0,18.728232724112914,0.0,1.0
1625450302.3125,0,0,204.40272743559996,0.0,1.0
1625450302.78125,0,0,0.0,0.0,1.0
1625450303.25,0,0,63.69803477286944,0.0,1.0
1625450303.71875,0,0,0.0,0.0,1.0
1625450304.1875,0,0,1.683463218369942,0.0,1.0
1625450304.65625,0,0,0.0,0.0,1.0
1625450305.125,0,0,288.4160467208436,0.0,1.0
1625450305.59375,0,0,62.6050070019309,0.0,1.0
1625450306.0625,0,0,369.5462284076775,0.0,1.0
1625450306.53125,0,0,0.0,0.0,1.0
1625450307.0,0,0,67.40413973593982,0.0,1.0
1625450307.46875,0,0,0.0,0.0,1.0
1625450307.9375,0,0,47.33703182830433,0.0,1.0
1625450308.40625,0,0,19.244743217250797,0.0,1.0
1625450308.875,0,0,306.06301986965025,0.0,1.0
1625450309.34375,0,0,39.850600579173005,0.0,1.0
1625450309.8125,0,0,33.97755859886037,0.0,1.0
1625450310.28125,0,0,0.0,0.0,1.0
1625450310.75,0,0,378.58897371557407,0.0,1.0
1625450311.21875,0,0,0.0,0.0,1.0
1625450311.6875,0,0,41.130223935249255,0.0,1.0
1625450312.15625,0,0,41.268033059104056,0.0,1.0
1625450312.625,0,0,262.8418014118452,0.0,1.0
1625450313.09375,0,0,0.0,0.0,1.0
1625450313.5625,0,0,38.5952889799904,0.0,1.0
1625450314.03125,0,0,33.13591293102999,0.0,1.0
1625450314.5,0,0,299.91872253626343,0.0,1.0
1625450314.96875,0,0,52.19671548234838,0.0,1.0
1625450315.4375,0,0,0.0,0.0,1.0
1625450315.90625,0,0,74.69707966096136,0.0,1.0
1625450316.375,0,0,17.732367568392263,0.0,1.0
1625450316.84375,0,0,147.12371387339192,0.0,1.0
1625450317.3125,0,0,-17.120658620891856,0.0,1.0
1625450317.78125,0,0,29.430459322999898,0.0,1.0
1625450318.25,0,0,289.10948758794206,0.0,1.0
1625450318.71875,0,0,-28.567333516959014,0.0,1.0
1625450319.1875,0,0,41.472131534603584,0.0,1.0
1625450319.65625,0,0,0.0,0.0,1.0
1625450320.125,0,0,330.8832224063278,0.0,1.0
1625450320.59375,0,0,0.0,0.0,1.0
1625450321.0625,0,0,50.933317122784004,0.0,1.0
1625450321.53125,0,0,0.0,0.0,1.0
1625450322.0,0,0,160.86070758656055,0.0,1.0
1625450322.46875,0,0,0.0,0.0,1.0
1625450322.9375,0,0,71.79645773197132,0.0,1.0
1625450323.40625,0,0,0.0,0.0,1.0
1625450323.875,0,0,29.60917781367996,0.0,1.0
1625450324.34375,0,0,-3.1582492713921106,0.0,1.0
1625450324.8125,0,0,21.495764880847588,0.0,1.0
1625450325.28125,0,0,52.24556796639167,0.0,1.0
1625450325.75,0,0,0.0,0.0,1.0
1625450326.21875,0,0,145.97412986189644,0.0,1.0
1625450326.6875,0,0,0.0,0.0,1.0
1625450327.15625,0,0,0.6948190151822672,0.0,1.0
1625450327.625,0,0,-3.430197887830781,0.0,1.0
1625450328.09375,0,0,204.53823983800552,0.0,1.0
1625450328.5625,0,0,0.0,0.0,1.0
1625450329.03125,0,0,32.66268281049546,0.0,1.0
1625450329.5,0,0,28.944606434897462,0.0,1.0
1625450329.96875,0,0,117.31764041007355,0.0,1.0
1625450330.4375,0,0,-37.03422702805312,0.0,1.0
1625450330.90625,0,0,104.70413496923324,0.0,1.0
1625450331.375,0,0,0.0,0.0,1.0
1625450331.84375,0,0,-7.251118597381107,0.0,1.0
1625450332.3125,0,0,35.99455158670305,0.0,1.0
1625450332.78125,0,0,0.0,0.0,1.0
1625450333.25,0,0,7.263452617585663,0.0,1.0
1625450333.71875,0,0,99.2840779588766,0.0,1.0
1625450334.1875,0,0,1.5817287180488513,0.0,1.0
1625450334.65625,0,0,0.0,0.0,1.0
1625450335.125,0,0,0.0,0.0,1.0
1625450335.59375,0,0,6.888634498165092,0.0,1.0
1625450336.0625,0,0,0.0,0.0,1.0
1625450336.53125,0,0,201.77147307452407,0.0,1.0
1625450337.0,0,0,60.693265470540375,0.0,1.0
1625450337.46875,0,0,15.713808536516616,0.0,1.0
1625450337.9375,0,0,21.186445153830626,0.0,1.0
1625450338.40625,0,0,0.0,0.0,1.0
1625450338.875,0,0,0.0,0.0,1.0
1625450339.34375,0,0,45.62181002404192,0.0,1.0
1625450339.8125,0,0,0.0,0.0,1.0
1625450340.28125,0,0,54.38975473117981,0.0,1.0
1625450340.75,0,0,33.43444190761519,0.0,1.0
1625450341.21875,0,0,0.0,0.0,1.0
1625450341.6875,0,0,37.24294623892285,0.0,1.0
1625450342.15625,0,0,42.657769233648445,0.0,1.0
1625450342.625,0,0,50.62067504630972,0.0,1.0
1625450343.09375,0,0,0.0,0.0,1.0
1625450343.5625,0,0,45.370129461662884,0.0,1.0
1625450344.03125,0,0,0.0,0.0,1.0
1625450344.5,0,0,40.659847491745985,0.0,1.0
1625450344.96875,0,0,0.0,0.0,1.0
1625450345.4375,0,0,37.739781286690665,0.0,1.0
1625450345.90625,0,0,13.538252725452269,0.0,1.0
1625450346.375,0,0,0.0,0.0,1.0
1625450346.84375,0,0,32.558002822238315,0.0,1.0
1625450347.3125,0,0,30.73352295550792,0.0,1.0
1625450347.78125,0,0,0.0,0.0,1.0
1625450348.25,0,0,38.253275338833696,0.0,1.0
1625450348.71875,0,0,0.0,0.0,1.0
1625450349.1875,0,0,40.56965459783071,0.0,1.0
1625450349.65625,0,0,0.0,0.0,1.0
1625450350.125,0,0,102.63353752405867,0.0,1.0
1625450350.59375,0,0,43.34797070618544,0.0,1.0
1625450351.0625,0,0,0.0,0.0,1.0
1625450351.53125,0,0,66.89762652426606,0.0,1.0
1625450352.0,0,0,114.26191676442043,0.0,1.0
1625450352.46875,0,0,-61.80688301271318,0.0,1.0
1625450352.9375,0,0,61.57099469753811,0.0,1.0
1625450353.40625,0,0,0.0,0.0,1.0
1625450353.875,0,0,39.86881879882333,0.0,1.0
1625450354.34375,0,0,0.0,0.0,1.0
1625450354.8125,0,0,37.10775193789636,0.0,1.0
1625450355.28125,0,0,0.0,0.0,1.0
1625450355.75,0,0,30.70589041583782,0.0,1.0
1625450356.21875,0,0,0.0,0.0,1.0
1625450356.6875,0,0,57.359762631417674,0.0,1.0
1625450357.15625,0,0,43.24091670884858,0.0,1.0
1625450357.625,0,0,0.0,0.0,1.0
1625450358.09375,0,0,9.068634766204998,0.0,1.0
1625450358.5625,0,0,0.0,0.0,1.0
1625450359.03125,0,0,111.78673202362089,0.0,1.0
1625450359.5,0,0,0.0,0.0,1.0
1625450359.96875,0,0,43.7433604509505,0.0,1.0
1625450360.4375,0,0,43.221336666329485,0.0,1.0
1625450360.90625,0,0,113.81008874939872,0.0,1.0
1625450361.375,0,0,16.985438570062733,0.0,1.0
1625450361.84375,0,0,9.360266979413694,0.0,1.0
1625450362.3125,0,0,134.5572854964046,0.0,1.0
1625450362.78125,0,0,0.0,0.0,1.0
1625450363.25,0,0,-11.387883144733815,0.0,1.0
1625450363.71875,0,0,41.9059756721844,0.0,1.0
1625450364.1875,0,0,7.994765165894774,0.0,1.0
1625450364.65625,0,0,0.0,0.0,1.0
1625450365.125,0,0,149.98354055727486,0.0,1.0
1625450365.59375,0,0,27.151659440921502,0.0,1.0
1625450366.0625,0,0,0.0,0.0,1.0
1625450366.53125,0,0,158.95812192326343,0.0,1.0
1625450367.0,0,0,0.0,0.0,1.0
1625450367.46875,0,0,32.74423468935318,0.0,1.0
1625450367.9375,0,0,5.572124674378568,0.0,1.0
1625450368.40625,0,0,0.0,0.0,1.0
1625450368.875,0,0,172.84264338399262,0.0,1.0
1625450369.34375,0,0,0.0,0.0,1.0
1625450369.8125,0,0,0.0,0.0,1.0
1625450370.28125,0,0,17.81021751460833,0.0,1.0
1625450370.75,0,0,0.0,0.0,1.0
1625450371.21875,0,0,199.85550705805667,0.0,1.0
1625450371.6875,0,0,32.96487383267076,0.0,1.0
1625450372.15625,0,0,14.341146181601623,0.0,1.0
1625450372.625,0,0,42.155343038540174,0.0,1.0
1625450373.09375,0,0,36.60061987272413,0.0,1.0
1625450373.5625,0,0,24.183687625581037,0.0,1.0
1625450374.03125,0,0,0.0,0.0,1.0
1625450374.5,0,0,20.541922739623633,0.0,1.0
1625450374.96875,0,0,0.0,0.0,1.0
1625450375.4375,0,0,222.61764626703135,0.0,1.0
1625450375.90625,0,0,0.0,0.0,1.0
1625450376.375,0,0,42.31688244950306,0.0,1.0
1625450376.84375,0,0,20.611820585768246,0.0,1.0
1625450377.3125,0,0,0.0,0.0,1.0
1625450377.78125,0,0,151.81155771934604,0.0,1.0
1625450378.25,0,0,0.0,0.0,1.0
1625450378.71875,0,0,0.0,0.0,1.0
1625450379.1875,0,0,149.11492235784118,0.0,1.0
1625450379.65625,0,0,0.0,0.0,1.0
1625450380.125,0,0,42.919665085197565,0.0,1.0
1625450380.59375,0,0,-0.8215192061764208,0.0,1.0
1625450381.0625,0,0,0.0,0.0,1.0
1625450381.53125,0,0,286.2669871885319,0.0,1.0
1625450382.0,0,0,63.46445893571935,0.0,1.0
1625450382.46875,0,0,0.0,0.0,1.0
1625450382.9375,0,0,61.0577649767084,0.0,1.0
1625450383.40625,0,0,-27.60390661190524,0.0,1.0
1625450383.875,0,0,158.90128212511624,0.0,1.0
1625450384.34375,0,0,54.47270600670946,0.0,1.0
1625450384.8125,0,0,40.458525179397775,0.0,1.0
1625450385.28125,0,0,123.07182221218126,0.0,1.0
1625450385.75,0,0,0.0,0.0,1.0
1625450386.21875,0,0,13.628531422794246,0.0,1.0
1625450386.6875,0,0,29.967311956085833,0.0,1.0
1625450387.15625,0,0,212.42085900282217,0.0,1.0
1625450387.625,0,0,0.0,0.0,1.0
1625450388.09375,0,0,38.27220979538923,0.0,1.0
1625450388.5625,0,0,39.199197051950264,0.0,1.0
1625450389.03125,0,0,0.0,0.0,1.0
1625450389.5,0,0,78.81178623507957,0.0,1.0
1625450389.96875,0,0,0.0,0.0,1.0
1625450390.4375,0,0,72.60228116306183,0.0,1.0
1625450390.90625,0,0,94.11094674752701,0.0,1.0
1625450391.375,0,0,0.0,0.0,1.0
1625450391.84375,0,0,71.91986889099603,0.0,1.0
1625450392.3125,0,0,0.0,0.0,1.0
1625450392.78125,0,0,48.346169673474584,0.0,1.0
1625450393.25,0,0,38.02903825043219,0.0,1.0
1625450393.71875,0,0,50.21812876369748,0.0,1.0
1625450394.1875,0,0,0.0,0.0,1.0
1625450394.65625,0,0,32.105333243042416,0.0,1.0
1625450395.125,0,0,0.0,0.0,1.0
1625450395.59375,0,0,19.5997865152397,0.0,1.0
1625450396.0625,0,0,277.79585501530977,0.0,1.0
1625450396.53125,0,0,-42.68553796975384,0.0,1.0
1625450397.0,0,0,40.999530385794515,0.0,1.0
1625450397.46875,0,0,260.81139353057523,0.0,1.0
1625450397.9375,0,0,0.0,0.0,1.0
1625450398.40625,0,0,53.01627041864621,0.0,1.0
1625450398.875,0,0,0.0,0.0,1.0
1625450399.34375,0,0,37.99887553597612,0.0,1.0
1625450399.8125,0,0,51.0885292332958,0.0,1.0
1625450400.28125,0,0,0.0,0.0,1.0
1625450400.75,0,0,47.676970900994604,0.0,1.0
1625450401.21875,0,0,14.196164261353353,0.0,1.0
1625450401.6875,0,0,0.0,0.0,1.0
1625450402.15625,0,0,66.11532964766678,0.0,1.0
1625450402.625,0,0,0.0,0.0,1.0
1625450403.09375,0,0,0.0,0.0,1.0
1625450403.5625,0,0,22.689633849935987,0.0,1.0
1625450404.03125,0,0,129.85750261387213,0.0,1.0
1625450404.5,0,0,-38.27403084574844,0.0,1.0
1625450404.96875,0,0,38.504612525283584,0.0,1.0
1625450405.4375,0,0,0.0,0.0,1.0
1625450405.90625,0,0,28.73185560417919,0.0,1.0
1625450406.375,0,0,0.0,0.0,1.0
1625450406.84375,0,0,0.0,0.0,1.0
1625450407.3125,0,0,35.978041221331274,0.0,1.0
1625450407.78125,0,0,0.0,0.0,1.0
1625450408.25,0,0,24.714291070070548,0.0,1.0
1625450408.71875,0,0,27.479096001108157,0.0,1.0
1625450409.1875,0,0,0.0,0.0,1.0
1625450409.65625,0,0,62.47228326912025,0.0,1.0
1625450410.125,0,0,0.0,0.0,1.0
1625450410.59375,0,0,116.4666137348228,0.0,1.0
1625450411.0625,0,0,7.041323171570625,0.0,1.0
1625450411.53125,0,0,-0.7881433351573547,0.0,1.0
1625450412.0,0,0,0.0,0.0,1.0
1625450412.46875,0,0,42.6656102626501,0.0,1.0
1625450412.9375,0,0,0.0,0.0,1.0
1625450413.40625,0,0,54.85765015818181,0.0,1.0
1625450413.875,0,0,42.595797418255934,0.0,1.0
1625450414.34375,0,0,-22.329349821119163,0.0,1.0
1625450414.8125,0,0,41.38852644895032,0.0,1.0
1625450415.28125,0,0,21.383259799063026,0.0,1.0
1625450415.75,0,0,0.0,0.0,1.0
1625450416.21875,0,0,14.108686311565656,0.0,1.0
1625450416.6875,0,0,0.0,0.0,1.0
1625450417.15625,0,0,84.4009674703066,0.0,1.0
1625450417.625,0,0,0.0,0.0,1.0
1625450418.09375,0,0,0.0,0.0,1.0
1625450418.5625,0,0,154.19138011469923,0.0,1.0
1625450419.03125,0,0,77.39905843487685,0.0,1.0
1625450419.5,0,0,0.0,0.0,1.0
1625450419.96875,0,0,92.37440858009634,0.0,1.0
1625450420.4375,0,0,0.0,0.0,1.0
1625450420.90625,0,0,0.0,0.0,1.0
1625450421.375,0,0,49.000019713797755,0.0,1.0
1625450421.84375,0,0,35.43256477514789,0.0,1.0
1625450422.3125,0,0,102.60848808261986,0.0,1.0
1625450422.78125,0,0,36.287725118096915,0.0,1.0
1625450423.25,0,0,0.0,0.0,1.0
1625450423.71875,0,0,0.0,0.0,1.0
1625450424.1875,0,0,92.5225962957781,0.0,1.0
1625450424.65625,0,0,0.0,0.0,1.0
1625450425.125,0,0,27.312576108050248,0.0,1.0
1625450425.59375,0,0,0.0,0.0,1.0
1625450426.0625,0,0,136.31931661145674,0.0,1.0
1625450426.53125,0,0,0.0,0.0,1.0
1625450427.0,0,0,0.0,0.0,1.0
1625450427.46875,0,0,25.357514760472487,0.0,1.0
1625450427.9375,0,0,0.0,0.0,1.0
1625450428.40625,0,0,79.38520773908219,0.0,1.0
1625450428.875,0,0,28.28479917617779,0.0,1.0
1625450429.34375,0,0,0.0,0.0,1.0
1625450429.8125,0,0,99.34404324917742,0.0,1.0
1625450430.28125,0,0,14.136897885273557,0.0,1.0
1625450430.75,0,0,0.0,0.0,1.0
1625450431.21875,0,0,26.806674710893795,0.0,1.0
1625450431.6875,0,0,16.588810558212973,0.0,1.0
1625450432.15625,0,0,133.67026696243843,0.0,1.0
1625450432.625,0,0,-5.523017668127839,0.0,1.0
1625450433.09375,0,0,46.326630084151994,0.0,1.0
1625450433.5625,0,0,0.0,0.0,1.0
1625450434.03125,0,0,13.589106481236623,0.0,1.0
1625450434.5,0,0,91.97921416701378,0.0,1.0
1625450434.96875,0,0,1.1497867874797967,0.0,1.0
1625450435.4375,0,0,25.462629439348493,0.0,1.0
1625450435.90625,0,0,0.0,0.0,1.0
1625450436.375,0,0,117.43049485131375,0.0,1.0
1625450436.84375,0,0,-54.710861438168436,0.0,1.0
1625450437.3125,0,0,39.82663766246983,0.0,1.0
1625450437.78125,0,0,0.0,0.0,1.0
1625450438.25,0,0,34.6029117159276,0.0,1.0
1625450438.71875,0,0,-15.960272870241727,0.0,1.0
1625450439.1875,0,0,0.0,0.0,1.0
1625450439.65625,0,0,55.18696004383148,0.0,1.0
1625450440.125,0,0,16.970410716426823,0.0,1.0
1625450440.59375,0,0,87.84171144228635,0.0,1.0
1625450441.0625,0,0,-25.370063308927346,0.0,1.0
1625450441.53125,0,0,56.24008882487223,0.0,1.0
1625450442.0,0,0,0.0,0.0,1.0
1625450442.46875,0,0,75.6892367607487,0.0,1.0
1625450442.9375,0,0,58.490613494064064,0.0,1.0
1625450443.40625,0,0,0.0,0.0,1.0
1625450443.875,0,0,24.116584650736858,0.0,1.0
1625450444.34375,0,0,25.787313245480167,0.0,1.0
1625450444.8125,0,0,13.87186089733073,0.0,1.0
1625450445.28125,0,0,26.532840965995796,0.0,1.0
1625450445.75,0,0,0.0,0.0,1.0
1625450446.21875,0,0,156.91402658455846,0.0,1.0
1625450446.6875,0,0,0.0,0.0,1.0
1625450447.15625,0,0,34.9291055812819,0.0,1.0
1625450447.625,0,0,30.181415952294223,0.0,1.0
1625450448.09375,0,0,0.0,0.0,1.0
1625450448.5625,0,0,122.66247984387735,0.0,1.0
1625450449.03125,0,0,36.58600762073185,0.0,1.0
1625450449.5,0,0,0.0,0.0,1.0
1625450449.96875,0,0,19.88565079506222,0.0,1.0
1625450450.4375,0,0,86.1063752296125,0.0,1.0
1625450450.90625,0,0,15.035056171104987,0.0,1.0
1625450451.375,0,0,20.171362719074963,0.0,1.0
1625450451.84375,0,0,0.0,0.0,1.0
1625450452.3125,0,0,145.9743514548784,0.0,1.0
1625450452.78125,0,0,0.0,0.0,1.0
1625450453.25,0,0,31.068528098153198,0.0,1.0
1625450453.71875,0,0,30.385479430689845,0.0,1.0
1625450454.1875,0,0,110.73553718066756,0.0,1.0
1625450454.65625,0,0,-21.221603580524373,0.0,1.0
1625450455.125,0,0,39.03506697583191,0.0,1.0
1625450455.59375,0,0,0.0,0.0,1.0
1625450456.0625,0,0,37.65895348454604,0.0,1.0
1625450456.53125,0,0,69.41047638162745,0.0,1.0
1625450457.0,0,0,-10.390781756162884,0.0,1.0
1625450457.46875,0,0,33.829095738166906,0.0,1.0
1625450457.9375,0,0,10.64493627022383,0.0,1.0
1625450458.40625,0,0,191.52245156785196,0.0,1.0
1625450458.875,0,0,0.0,0.0,1.0
1625450459.34375,0,0,0.0,0.0,1.0
1625450459.8125,0,0,40.179091521194636,0.0,1.0
1625450460.28125,0,0,17.943365624640975,0.0,1.0
1625450460.75,0,0,0.0,0.0,1.0
1625450461.21875,0,0,23.356415511584366,0.0,1.0
1625450461.6875,0,0,31.601882404280943,0.0,1.0
1625450462.15625,0,0,0.0,0.0,1.0
1625450462.625,0,0,28.99694941403889,0.0,1.0
1625450463.09375,0,0,31.714382569151137,0.0,1.0
1625450463.5625,0,0,0.0,0.0,1.0
1625450464.03125,0,0,27.422680424756585,0.0,1.0
1625450464.5,0,0,0.0,0.0,1.0
1625450464.96875,0,0,26.42997908811411,0.0,1.0
1625450465.4375,0,0,0.0,0.0,1.0
1625450465.90625,0,0,39.289458140676295,0.0,1.0
1625450466.375,0,0,15.937010226842972,0.0,1.0
1625450466.84375,0,0,23.011477841568706,0.0,1.0
1625450467.3125,0,0,97.91264716593845,0.0,1.0
1625450467.78125,0,0,0.0,0.0,1.0
1625450468.25,0,0,0.0,0.0,1.0
1625450468.71875,0,0,27.23452508631285,0.0,1.0
1625450469.1875,0,0,113.1939194167208,0.0,1.0
1625450469.65625,0,0,-5.229098495574465,0.0,1.0
1625450470.125,0,0,63.798811458111736,0.0,1.0
1625450470.59375,0,0,38.388899542343445,0.0,1.0
1625450471.0625,0,0,0.0,0.0,1.0
1625450471.53125,0,0,32.01663505704291,0.0,1.0
1625450472.0,0,0,33.56467017343145,0.0,1.0
1625450472.46875,0,0,0.0,0.0,1.0
1625450472.9375,0,0,22.306450341491125,0.0,1.0
1625450473.40625,0,0,73.58387564574272,0.0,1.0
1625450473.875,0,0,42.28423433761604,0.0,1.0
1625450474.34375,0,0,36.66617734038366,0.0,1.0
1625450474.8125,0,0,53.5648705102499,0.0,1.0
1625450475.28125,0,0,0.0,0.0,1.0
1625450475.75,0,0,154.11680702736476,0.0,1.0
1625450476.21875,0,0,202.54658251315556,0.0,1.0
1625450476.6875,0,0,0.0,0.0,1.0
1625450477.15625,0,0,76.90973670480444,0.0,1.0
1625450477.625,0,0,35.19823436234243,0.0,1.0
1625450478.09375,0,0,-22.744429945004697,0.0,1.0
1625450478.5625,0,0,42.294959917897415,0.0,1.0
1625450479.03125,0,0,0.0,0.0,1.0
1625450479.5,0,0,139.5957709210057,0.0,1.0
1625450479.96875,0,0,0.0,0.0,1.0
1625450480.4375,0,0,41.80078390270422,0.0,1.0
1625450480.90625,0,0,11.549270260023983,0.0,1.0
1625450481.375,0,0,0.0,0.0,1.0
1625450481.84375,0,0,-43.85674104906591,0.0,1.0
1625450482.3125,0,0,38.84213047596797,0.0,1.0
1625450482.78125,0,0,10.358094129913187,0.0,1.0
1625450483.25,0,0,0.0,0.0,1.0
1625450483.71875,0,0,0.0,0.0,1.0
1625450484.1875,0,0,61.47088299883218,0.0,1.0
1625450484.65625,0,0,-7.586863538025506,0.0,1.0
1625450485.125,0,0,12.463856830252267,0.0,1.0
1625450485.59375,0,0,130.0740640559635,0.0,1.0
1625450486.0625,0,0,0.0,0.0,1.0
1625450486.53125,0,0,36.153327230261404,0.0,1.0
1625450487.0,0,0,14.346275255593719,0.0,1.0
1625450487.46875,0,0,90.95583168382608,0.0,1.0
1625450487.9375,0,0,-56.787539063270785,0.0,1.0
1625450488.40625,0,0,48.75480668035236,0.0,1.0
1625450488.875,0,0,27.459865124676455,0.0,1.0
1625450489.34375,0,0,107.42505416188267,0.0,1.0
1625450489.8125,0,0,0.0,0.0,1.0
1625450490.28125,0,0,28.95012530180293,0.0,1.0
1625450490.75,0,0,15.289434308464893,0.0,1.0
1625450491.21875,0,0,4.5872445865471745,0.0,1.0
1625450491.6875,0,0,174.55588680380035,0.0,1.0
1625450492.15625,0,0,-41.42174973191816,0.0,1.0
1625450492.625,0,0,38.57948651632387,0.0,1.0
1625450493.09375,0,0,42.69066593271096,0.0,1.0
1625450493.5625,0,0,89.2329358094955,0.0,1.0
1625450494.03125,0,0,4.12545233247288,0.0,1.0
1625450494.5,0,0,66.61906134802906,0.0,1.0
1625450494.96875,0,0,0.0,0.0,1.0
1625450495.4375,0,0,142.79812933076533,0.0,1.0
1625450495.90625,0,0,0.0,0.0,1.0
1625450496.375,0,0,40.20208409807125,0.0,1.0
1625450496.84375,0,0,28.741427963069484,0.0,1.0
1625450497.3125,0,0,101.79110919071393,0.0,1.0
1625450497.78125,0,0,-30.1831157606654,0.0,1.0
1625450498.25,0,0,51.81183889494525,0.0,1.0
1625450498.71875,0,0,0.0,0.0,1.0
1625450499.1875,0,0,35.77275165997007,0.0,1.0
1625450499.65625,0,0,64.65045465150018,0.0,1.0
1625450500.125,0,0,-20.03527992852868,0.0,1.0
1625450500.59375,0,0,0.0,0.0,1.0
1625450501.0625,0,0,40.14423631280663,0.0,1.0
1625450501.53125,0,0,81.38042604409263,0.0,1.0
1625450502.0,0,0,-8.0675226285899,0.0,1.0
1625450502.46875,0,0,95.81273526271166,0.0,1.0
1625450502.9375,0,0,0.0,0.0,1.0
1625450503.40625,0,0,68.45958882610798,0.0,1.0
1625450503.875,0,0,24.541718232245014,0.0,1.0
1625450504.34375,0,0,0.0,0.0,1.0
1625450504.8125,0,0,20.302384959305222,0.0,1.0
1625450505.28125,0,0,0.0,0.0,1.0
1625450505.75,0,0,0.0,0.0,1.0
1625450506.21875,0,0,38.319760015367315,0.0,1.0
1625450506.6875,0,0,29.715667324549607,0.0,1.0
1625450507.15625,0,0,0.0,0.0,1.0
1625450507.625,0,0,178.34601670277118,0.0,1.0
1625450508.09375,0,0,0.0,0.0,1.0
1625450508.5625,0,0,58.96965446008271,0.0,1.0
1625450509.03125,0,0,25.879532170916033,0.0,1.0
1625450509.5,0,0,62.989164650707245,0.0,1.0
1625450509.96875,0,0,-11.237455310796928,0.0,1.0
1625450510.4375,0,0,0.0,0.0,1.0
1625450510.90625,0,0,36.676781344265336,0.0,1.0
1625450511.375,0,0,51.58376889364104,0.0,1.0
1625450511.84375,0,0,36.984662397702124,0.0,1.0
1625450512.3125,0,0,28.205318833698417,0.0,1.0
1625450512.78125,0,0,25.196944768468928,0.0,1.0
1625450513.25,0,0,171.34976983347892,0.0,1.0
1625450513.71875,0,0,0.0,0.0,1.0
1625450514.1875,0,0,9.299251015467386,0.0,1.0
1625450514.65625,0,0,35.969729245486334,0.0,1.0
1625450515.125,0,0,0.0,0.0,1.0
1625450515.59375,0,0,0.0,0.0,1.0
1625450516.0625,0,0,14.484347195486134,0.0,1.0
1625450516.53125,0,0,146.86761881209202,0.0,1.0
1625450517.0,0,0,-26.570177311744914,0.0,1.0
1625450517.46875,0,0,156.5369658410835,0.0,1.0
1625450517.9375,0,0,0.0,0.0,1.0
1625450518.40625,0,0,38.9784665796457,0.0,1.0
1625450518.875,0,0,10.808887742677896,0.0,1.0
1625450519.34375,0,0,30.397884269507266,0.0,1.0
1625450519.8125,0,0,11.128239407578873,0.0,1.0
1625450520.28125,0,0,52.11718931546151,0.0,1.0
1625450520.75,0,0,6.740247664574759,0.0,1.0
1625450521.21875,0,0,52.42964850940385,0.0,1.0
1625450521.6875,0,0,0.0,0.0,1.0
1625450522.15625,0,0,21.68901840369351,0.0,1.0
1625450522.625,0,0,58.06472315434881,0.0,1.0
1625450523.09375,0,0,0.0,0.0,1.0
1625450523.5625,0,0,0.0,0.0,1.0
1625450524.03125,0,0,20.78962037263812,0.0,1.0
1625450524.5,0,0,0.0,0.0,1.0
1625450524.96875,0,0,147.93549254441658,0.0,1.0
1625450525.4375,0,0,50.205232631236484,0.0,1.0
1625450525.90625,0,0,0.0,0.0,1.0
1625450526.375,0,0,71.4303491843395,0.0,1.0
1625450526.84375,0,0,8.591763734074316,0.0,1.0
1625450527.3125,0,0,22.130665430549914,0.0,1.0
1625450527.78125,0,0,18.416187706956084,0.0,1.0
1625450528.25,0,0,0.0,0.0,1.0
1625450528.71875,0,0,32.04429895022635,0.0,1.0
1625450529.1875,0,0,7.994817556125717,0.0,1.0
1625450529.65625,0,0,21.749974454272337,0.0,1.0
1625450530.125,0,0,19.436494304198693,0.0,1.0
1625450530.59375,0,0,17.425988828858877,0.0,1.0
1625450531.0625,0,0,0.0,0.0,1.0
1625450531.53125,0,0,17.356901368077757,0.0,1.0
1625450532.0,0,0,0.0,0.0,1.0
1625450532.46875,0,0,50.19260095310079,0.0,1.0
1625450532.9375,0,0,-14.689190480916407,0.0,1.0
1625450533.40625,0,0,-12.528023744674375,0.0,1.0
1625450533.875,0,0,40.590835744575735,0.0,1.0
1625450534.34375,0,0,79.86128235623235,0.0,1.0
1625450534.8125,0,0,3.0523643347615166,0.0,1.0
1625450535.28125,0,0,0.0,0.0,1.0
1625450535.75,0,0,81.27468248622687,0.0,1.0
1625450536.21875,0,0,195.7759786903134,0.0,1.0
1625450536.6875,0,0,21.7600436928297,0.0,1.0
1625450537.15625,0,0,0.0,0.0,1.0
1625450537.625,0,0,34.24289745062292,0.0,1.0
1625450538.09375,0,0,106.04667639720033,0.0,1.0
1625450538.5625,0,0,-60.865975576146454,0.0,1.0
1625450539.03125,0,0,51.03935447727589,0.0,1.0
1625450539.5,0,0,0.0,0.0,1.0
1625450539.96875,0,0,5.85445897309084,0.0,1.0
1625450540.4375,0,0,0.0,0.0,1.0
1625450540.90625,0,0,120.67195153895054,0.0,1.0
1625450541.375,0,0,29.368332007169734,0.0,1.0
1625450541.84375,0,0,0.0,0.0,1.0
1625450542.3125,0,0,50.153974840934254,0.0,1.0
1625450542.78125,0,0,0.0,0.0,1.0
1625450543.25,0,0,165.3743254483229,0.0,1.0
1625450543.71875,0,0,-21.6208371573773,0.0,1.0
1625450544.1875,0,0,0.0,0.0,1.0
1625450544.65625,0,0,0.0,0.0,1.0
1625450545.125,0,0,165.28828793132354,0.0,1.0
1625450545.59375,0,0,0.0,0.0,1.0
1625450546.0625,0,0,21.21636233100139,0.0,1.0
1625450546.53125,0,0,55.82580676835792,0.0,1.0
1625450547.0,0,0,0.0,0.0,1.0
1625450547.46875,0,0,0.0,0.0,1.0
1625450547.9375,0,0,12.562950767311587,0.0,1.0
1625450548.40625,0,0,92.59241376194815,0.0,1.0
1625450548.875,0,0,116.68334214543299,0.0,1.0
1625450549.34375,0,0,34.7357022389281,0.0,1.0
1625450549.8125,0,0,0.0,0.0,1.0
1625450550.28125,0,0,148.12426900598786,0.0,1.0
1625450550.75,0,0,-77.17203547307761,0.0,1.0
1625450551.21875,0,0,46.79028816529615,0.0,1.0
1625450551.6875,0,0,25.785053531190965,0.0,1.0
1625450552.15625,0,0,11.569502327464496,0.0,1.0
1625450552.625,0,0,46.29821841246172,0.0,1.0
1625450553.09375,0,0,99.40096377982437,0.0,1.0
1625450553.5625,0,0,72.83950654352608,0.0,1.0
1625450554.03125,0,0,0.0,0.0,1.0
1625450554.5,0,0,162.2424033606999,0.0,1.0
1625450554.96875,0,0,0.0,0.0,1.0
1625450555.4375,0,0,64.57218850026433,0.0,1.0
1625450555.90625,0,0,42.659567717988054,0.0,1.0
1625450556.375,0,0,-7.955537315169803,0.0,1.0
1625450556.84375,0,0,213.7479140163213,0.0,1.0
1625450557.3125,0,0,-70.68318234457824,0.0,1.0
1625450557.78125,0,0,58.2446294631602,0.0,1.0
1625450558.25,0,0,19.16740716787158,0.0,1.0
1625450558.71875,0,0,0.0,0.0,1.0
1625450559.1875,0,0,257.9013737963082,0.0,1.0
1625450559.65625,0,0,83.16510588590218,0.0,1.0
1625450560.125,0,0,0.0,0.0,1.0
1625450560.59375,0,0,103.95558467097254,0.0,1.0
1625450561.0625,0,0,180.60657151459588,0.0,1.0
1625450561.53125,0,0,34.86722973198997,0.0,1.0
1625450562.0,0,0,38.010558396712334,0.0,1.0
1625450562.46875,0,0,0.0,0.0,1.0
1625450562.9375,0,0,0.0,0.0,1.0
1625450563.40625,0,0,-23.27251756348122,0.0,1.0
1625450563.875,0,0,62.02528172152552,0.0,1.0
1625450564.34375,0,0,0.0,0.0,1.0
1625450564.8125,0,0,0.0,0.0,1.0
1625450565.28125,0,0,47.08926304597027,0.0,1.0
1625450565.75,0,0,0.0,0.0,1.0
1625450566.21875,0,0,17.376679697679517,0.0,1.0
1625450566.6875,0,0,17.928245271024803,0.0,1.0
1625450567.15625,0,0,0.0,0.0,1.0
1625450567.625,0,0,26.384898213766593,0.0,1.0
1625450568.09375,0,0,0.0,0.0,1.0
1625450568.5625,0,0,261.8432310975722,0.0,1.0
1625450569.03125,0,0,0.0,0.0,1.0
1625450569.5,0,0,0.0,0.0,1.0
1625450569.96875,0,0,38.85675818611606,0.0,1.0
1625450570.4375,0,0,0.0,0.0,1.0
1625450570.90625,0,0,192.7210862503979,0.0,1.0
1625450571.375,0,0,33.158456026957644,0.0,1.0
1625450571.84375,0,0,9.797130302445012,0.0,1.0
1625450572.3125,0,0,6.363128179675286,0.0,1.0
1625450572.78125,0,0,202.95256925589914,0.0,1.0
1625450573.25,0,0,0.0,0.0,1.0
1625450573.71875,0,0,48.97370204670363,0.0,1.0
1625450574.1875,0,0,37.572096277520245,0.0,1.0
1625450574.65625,0,0,0.0,0.0,1.0
1625450575.125,0,0,199.06590116551078,0.0,1.0
1625450575.59375,0,0,-65.00580425453444,0.0,1.0
1625450576.0625,0,0,37.89971489484904,0.0,1.0
1625450576.53125,0,0,56.647258769577256,0.0,1.0
1625450577.0,0,0,164.629974740002,0.0,1.0
1625450577.46875,0,0,-32.55078458408997,0.0,1.0
1625450577.9375,0,0,54.507869817756976,0.0,1.0
1625450578.40625,0,0,0.0,0.0,1.0
1625450578.875,0,0,26.855687935769225,0.0,1.0
1625450579.34375,0,0,0.0,0.0,1.0
1625450579.8125,0,0,0.0,0.0,1.0
1625450580.28125,0,0,119.87246549728155,0.0,1.0
1625450580.75,0,0,58.333669726371994,0.0,1.0
1625450581.21875,0,0,49.385967241217834,0.0,1.0
1625450581.6875,0,0,31.040758432234938,0.0,1.0
1625450582.15625,0,0,-27.898600605008458,0.0,1.0
1625450582.625,0,0,66.66360877515665,0.0,1.0
1625450583.09375,0,0,39.78591360516812,0.0,1.0
1625450583.5625,0,0,0.0,0.0,1.0
1625450584.03125,0,0,41.85796121454021,0.0,1.0
1625450584.5,0,0,0.0,0.0,1.0
1625450584.96875,0,0,18.08193289672264,0.0,1.0
1625450585.4375,0,0,30.023814514904434,0.0,1.0
1625450585.90625,0,0,0.0,0.0,1.0
1625450586.375,0,0,23.857070682756337,0.0,1.0
1625450586.84375,0,0,66.19485307844988,0.0,1.0
1625450587.3125,0,0,0.0,0.0,1.0
1625450587.78125,0,0,81.70425473927105,0.0,1.0
1625450588.25,0,0,0.0,0.0,1.0
1625450588.71875,0,0,63.264515400549186,0.0,1.0
1625450589.1875,0,0,21.150027634586962,0.0,1.0
1625450589.65625,0,0,0.0,0.0,1.0
1625450590.125,0,0,0.0,0.0,1.0
1625450590.59375,0,0,53.28426002922699,0.0,1.0
1625450591.0625,0,0,0.0,0.0,1.0
1625450591.53125,0,0,48.515586150987765,0.0,1.0
1625450592.0,0,0,34.283581417000256,0.0,1.0
1625450592.46875,0,0,28.05653999270284,0.0,1.0
1625450592.9375,0,0,54.590518010947775,0.0,1.0
1625450593.40625,0,0,33.13546921250515,0.0,1.0
1625450593.875,0,0,0.0,0.0,1.0
1625450594.34375,0,0,166.79794120177976,0.0,1.0
1625450594.8125,0,0,0.0,0.0,1.0
1625450595.28125,0,0,14.838735481937613,0.0,1.0
1625450595.75,0,0,81.28111253606158,0.0,1.0
1625450596.21875,0,0,23.70843598839641,0.0,1.0
1625450596.6875,0,0,0.0,0.0,1.0
1625450597.15625,0,0,29.561965506769656,0.0,1.0
1625450597.625,0,0,52.63686256674619,0.0,1.0
1625450598.09375,0,0,20.18805966486215,0.0,1.0
1625450598.5625,0,0,0.0,0.0,1.0
1625450599.03125,0,0,18.383053446200748,0.0,1.0
1625450599.5,0,0,80.16717144657297,0.0,1.0
1625450599.96875,0,0,0.0,0.0,1.0
1625450600.4375,0,0,110.28813499369963,0.0,1.0
1625450600.90625,0,0,0.0,0.0,1.0
1625450601.375,0,0,72.46075216262521,0.0,1.0
1625450601.84375,0,0,26.207377468366165,0.0,1.0
1625450602.3125,0,0,0.0,0.0,1.0
1625450602.78125,0,0,50.918974819468175,0.0,1.0
1625450603.25,0,0,0.0,0.0,1.0
1625450603.71875,0,0,87.57161740233722,0.0,1.0
1625450604.1875,0,0,0.0,0.0,1.0
1625450604.65625,0,0,0.0,0.0,1.0
1625450605.125,0,0,77.9270177113074,0.0,1.0
1625450605.59375,0,0,-55.002852682927596,0.0,1.0
1625450606.0625,0,0,36.03011681815552,0.0,1.0
1625450606.53125,0,0,76.1803656559423,0.0,1.0
1625450607.0,0,0,0.0,0.0,1.0
1625450607.46875,0,0,81.07999297533678,0.0,1.0
1625450607.9375,0,0,0.0,0.0,1.0
1625450608.40625,0,0,50.95440660131581,0.0,1.0
1625450608.875,0,0,0.0,0.0,1.0
1625450609.34375,0,0,0.0,0.0,1.0
1625450609.8125,0,0,61.36193484632667,0.0,1.0
1625450610.28125,0,0,0.0,0.0,1.0
1625450610.75,0,0,68.05423895207774,0.0,1.0
1625450611.21875,0,0,0.0,0.0,1.0
1625450611.6875,0,0,102.92136230205746,0.0,1.0
1625450612.15625,0,0,59.23470808994642,0.0,1.0
1625450612.625,0,0,106.42467139522174,0.0,1.0
1625450613.09375,0,0,-3.37127276823595,0.0,1.0
1625450613.5625,0,0,68.49955695385832,0.0,1.0
1625450614.03125,0,0,0.0,0.0,1.0
1625450614.5,0,0,16.183823525410613,0.0,1.0
1625450614.96875,0,0,33.92384648879078,0.0,1.0
1625450615.4375,0,0,52.43198243389849,0.0,1.0
1625450615.90625,0,0,90.14390249232554,0.0,1.0
1625450616.375,0,0,0.0,0.0,1.0
1625450616.84375,0,0,136.06204613329,0.0,1.0
1625450617.3125,0,0,0.0,0.0,1.0
1625450617.78125,0,0,42.46157659720656,0.0,1.0
1625450618.25,0,0,110.60067196705411,0.0,1.0
1625450618.71875,0,0,0.0,0.0,1.0
1625450619.1875,0,0,32.886937994287564,0.0,1.0
1625450619.65625,0,0,0.0,0.0,1.0
1625450620.125,0,0,94.82949733448109,0.0,1.0
1625450620.59375,0,0,0.0,0.0,1.0
1625450621.0625,0,0,45.580670315688494,0.0,1.0
1625450621.53125,0,0,0.0,0.0,1.0
1625450622.0,0,0,8.118833715605646,0.0,1.0
1625450622.46875,0,0,28.994016035043717,0.0,1.0
1625450622.9375,0,0,0.0,0.0,1.0
1625450623.40625,0,0,22.099685419911008,0.0,1.0
1625450623.875,0,0,37.361185854296735,0.0,1.0
1625450624.34375,0,0,9.603991508718398,0.0,1.0
1625450624.8125,0,0,42.3167458762792,0.0,1.0
1625450625.28125,0,0,0.0,0.0,1.0
1625450625.75,0,0,35.83316209781566,0.0,1.0
1625450626.21875,0,0,0.0,0.0,1.0
1625450626.6875,0,0,34.68109311718467,0.0,1.0
1625450627.15625,0,0,64.91386104813328,0.0,1.0
1625450627.625,0,0,-27.589697737388367,0.0,1.0
1625450628.09375,0,0,139.4175528318783,0.0,1.0
1625450628.5625,0,0,0.0,0.0,1.0
1625450629.03125,0,0,79.90109326330065,0.0,1.0
1625450629.5,0,0,0.0,0.0,1.0
1625450629.96875,0,0,25.863504017597194,0.0,1.0
1625450630.4375,0,0,-1.689421523795418,0.0,1.0
1625450630.90625,0,0,80.1131549364294,0.0,1.0
1625450631.375,0,0,-41.42008918545081,0.0,1.0
1625450631.84375,0,0,43.419337167721416,0.0,1.0
1625450632.3125,0,0,46.80725043825243,0.0,1.0
1625450632.78125,0,0,44.32143668497625,0.0,1.0
1625450633.25,0,0,0.0,0.0,1.0
1625450633.71875,0,0,11.643077320722284,0.0,1.0
1625450634.1875,0,0,0.0,0.0,1.0
1625450634.65625,0,0,50.5452740199411,0.0,1.0
1625450635.125,0,0,23.367830239929308,0.0,1.0
1625450635.59375,0,0,0.0,0.0,1.0
1625450636.0625,0,0,36.38030266508937,0.0,1.0
1625450636.53125,0,0,0.0,0.0,1.0
1625450637.0,0,0,47.243825360473764,0.0,1.0
1625450637.46875,0,0,34.44309924224047,0.0,1.0
1625450637.9375,0,0,0.0,0.0,1.0
1625450638.40625,0,0,11.148323554002785,0.0,1.0
1625450638.875,0,0,0.0,0.0,1.0
1625450639.34375,0,0,0.0,0.0,1.0
1625450639.8125,0,0,21.01407428256137,0.0,1.0
1625450640.28125,0,0,35.61010620511016,0.0,1.0
1625450640.75,0,0,26.817706398557046,0.0,1.0
1625450641.21875,0,0,48.05236716130124,0.0,1.0
1625450641.6875,0,0,94.49892335282173,0.0,1.0
1625450642.15625,0,0,0.0,0.0,1.0
1625450642.625,0,0,96.63932050639761,0.0,1.0
1625450643.09375,0,0,33.395083463176576,0.0,1.0
1625450643.5625,0,0,0.0,0.0,1.0
1625450644.03125,0,0,47.592993377360706,0.0,1.0
1625450644.5,0,0,0.0,0.0,1.0
1625450644.96875,0,0,28.667854370120814,0.0,1.0
1625450645.4375,0,0,48.5969734707276,0.0,1.0
1625450645.90625,0,0,0.0,0.0,1.0
1625450646.375,0,0,17.039505057560635,0.0,1.0
1625450646.84375,0,0,0.0,0.0,1.0
1625450647.3125,0,0,44.65982286121034,0.0,1.0
1625450647.78125,0,0,17.027177507221587,0.0,1.0
1625450648.25,0,0,48.64961888283197,0.0,1.0
1625450648.71875,0,0,0.0,0.0,1.0
1625450649.1875,0,0,32.8889843651504,0.0,1.0
1625450649.65625,0,0,0.0,0.0,1.0
1625450650.125,0,0,58.97206035070807,0.0,1.0
1625450650.59375,0,0,20.332354082823475,0.0,1.0
1625450651.0625,0,0,0.0,0.0,1.0
1625450651.53125,0,0,54.98183665954756,0.0,1.0
1625450652.0,0,0,48.073597294374714,0.0,1.0
1625450652.46875,0,0,30.202105851799175,0.0,1.0
1625450652.9375,0,0,52.36073369699827,0.0,1.0
1625450653.40625,0,0,145.77987433047224,0.0,1.0
1625450653.875,0,0,-41.666371818113035,0.0,1.0
1625450654.34375,0,0,60.569840411521774,0.0,1.0
1625450654.8125,0,0,0.0,0.0,1.0
1625450655.28125,0,0,159.35051821601726,0.0,1.0
1625450655.75,0,0,38.50486294253264,0.0,1.0
1625450656.21875,0,0,0.0,0.0,1.0
1625450656.6875,0,0,35.7630699841964,0.0,1.0
1625450657.15625,0,0,0.0,0.0,1.0
1625450657.625,0,0,81.91670594473926,0.0,1.0
1625450658.09375,0,0,27.115244894063935,0.0,1.0
1625450658.5625,0,0,0.0,0.0,1.0
1625450659.03125,0,0,85.30328315089932,0.0,1.0
1625450659.5,0,0,71.05749746897578,0.0,1.0
1625450659.96875,0,0,0.0,0.0,1.0
1625450660.4375,0,0,52.231466197497355,0.0,1.0
1625450660.90625,0,0,30.99602733952878,0.0,1.0
1625450661.375,0,0,39.84018744111022,0.0,1.0
1625450661.84375,0,0,0.0,0.0,1.0
1625450662.3125,0,0,39.07181820939039,0.0,1.0
1625450662.78125,0,0,0.0,0.0,1.0
1625450663.25,0,0,173.26420160522147,0.0,1.0
1625450663.71875,0,0,0.0,0.0,1.0
1625450664.1875,0,0,53.86572969586594,0.0,1.0
1625450664.65625,0,0,67.05975682704668,0.0,1.0
1625450665.125,0,0,0.0,0.0,1.0
1625450665.59375,0,0,109.72832036725667,0.0,1.0
1625450666.0625,0,0,45.37642187976347,0.0,1.0
1625450666.53125,0,0,0.0,0.0,1.0
1625450667.0,0,0,68.42210456949569,0.0,1.0
1625450667.46875,0,0,171.65505733825873,0.0,1.0
1625450667.9375,0,0,-22.893448603914738,0.0,1.0
1625450668.40625,0,0,57.06334094840004,0.0,1.0
1625450668.875,0,0,45.455505665471335,0.0,1.0
1625450669.34375,0,0,20.17335683126256,0.0,1.0
1625450669.8125,0,0,-13.43838847442149,0.0,1.0
1625450670.28125,0,0,44.05171807213933,0.0,1.0
1625450670.75,0,0,32.438876573368596,0.0,1.0
1625450671.21875,0,0,0.0,0.0,1.0
1625450671.6875,0,0,-26.89400126258113,0.0,1.0
1625450672.15625,0,0,0.0,0.0,1.0
1625450672.625,0,0,0.0,0.0,1.0
1625450673.09375,0,0,27.463345259885827,0.0,1.0
1625450673.5625,0,0,132.25017920732006,0.0,1.0
1625450674.03125,0,0,43.68478901617635,0.0,1.0
1625450674.5,0,0,29.673289058077955,0.0,1.0
1625450674.96875,0,0,0.0,0.0,1.0
1625450675.4375,0,0,216.71857537697346,0.0,1.0
1625450675.90625,0,0,0.0,0.0,1.0
1625450676.375,0,0,43.98294512658445,0.0,1.0
1625450676.84375,0,0,69.65239704348652,0.0,1.0
1625450677.3125,0,0,134.96846467553962,0.0,1.0
1625450677.78125,0,0,-2.5832460819787646,0.0,1.0
1625450678.25,0,0,55.19978676835525,0.0,1.0
1625450678.71875,0,0,0.0,0.0,1.0
1625450679.1875,0,0,47.24224675072324,0.0,1.0
1625450679.65625,0,0,151.0958741393263,0.0,1.0
1625450680.125,0,0,45.08218440557444,0.0,1.0
1625450680.59375,0,0,34.2682482165866,0.0,1.0
1625450681.0625,0,0,0.0,0.0,1.0
1625450681.53125,0,0,196.76864546032522,0.0,1.0
1625450682.0,0,0,-71.5763155412715,0.0,1.0
1625450682.46875,0,0,55.41385949027811,0.0,1.0
1625450682.9375,0,0,105.41436944999462,0.0,1.0
1625450683.40625,0,0,0.0,0.0,1.0
1625450683.875,0,0,83.47376300934386,0.0,1.0
1625450684.34375,0,0,0.0,0.0,1.0
1625450684.8125,0,0,39.85864295054771,0.0,1.0
1625450685.28125,0,0,120.38926279388961,0.0,1.0
1625450685.75,0,0,0.0,0.0,1.0
1625450686.21875,0,0,52.363619034931496,0.0,1.0
1625450686.6875,0,0,30.11623594561569,0.0,1.0
1625450687.15625,0,0,0.0,0.0,1.0
1625450687.625,0,0,40.55744487286878,0.0,1.0
1625450688.09375,0,0,138.7571636329521,0.0,1.0
1625450688.5625,0,0,-7.598385211383922,0.0,1.0
1625450689.03125,0,0,0.0,0.0,1.0
1625450689.5,0,0,0.0,0.0,1.0
1625450689.96875,0,0,0.0,0.0,1.0
1625450690.4375,0,0,-15.648545630260902,0.0,1.0
1625450690.90625,0,0,55.785303284870004,0.0,1.0
1625450691.375,0,0,134.89207769994195,0.0,1.0
1625450691.84375,0,0,-82.42894836190818,0.0,1.0
1625450692.3125,0,0,57.8382952746415,0.0,1.0
1625450692.78125,0,0,68.61597232163382,0.0,1.0
1625450693.25,0,0,0.0,0.0,1.0
1625450693.71875,0,0,85.0785159689363,0.0,1.0
1625450694.1875,0,0,0.0,0.0,1.0
1625450694.65625,0,0,58.99706317035576,0.0,1.0
1625450695.125,0,0,29.023424738078013,0.0,1.0
1625450695.59375,0,0,0.0,0.0,1.0
1625450696.0625,0,0,44.79054601214237,0.0,1.0
1625450696.53125,0,0,0.0,0.0,1.0
1625450697.0,0,0,55.1715035245031,0.0,1.0
1625450697.46875,0,0,0.0,0.0,1.0
1625450697.9375,0,0,0.0,0.0,1.0
1625450698.40625,0,0,48.43282399760721,0.0,1.0
1625450698.875,0,0,0.0,0.0,1.0
1625450699.34375,0,0,42.854661456875846,0.0,1.0
1625450699.8125,0,0,0.0,0.0,1.0
1625450700.28125,0,0,0.0,0.0,1.0
1625450700.75,0,0,38.93328525895612,0.0,1.0
1625450701.21875,0,0,0.0,0.0,1.0
1625450701.6875,0,0,47.4184356947972,0.0,1.0
1625450702.15625,0,0,47.60513141018981,0.0,1.0
1625450702.625,0,0,0.0,0.0,1.0
1625450703.09375,0,0,41.20889880386312,0.0,1.0
1625450703.5625,0,0,0.0,0.0,1.0
1625450704.03125,0,0,39.70234914892731,0.0,1.0
1625450704.5,0,0,36.6123684220357,0.0,1.0
1625450704.96875,0,0,0.0,0.0,1.0
1625450705.4375,0,0,46.05363703642032,0.0,1.0
1625450705.90625,0,0,0.0,0.0,1.0
1625450706.375,0,0,50.30747870661356,0.0,1.0
1625450706.84375,0,0,53.476319171020286,0.0,1.0
1625450707.3125,0,0,0.0,0.0,1.0
1625450707.78125,0,0,52.872404555647734,0.0,1.0
1625450708.25,0,0,49.47413258155807,0.0,1.0
1625450708.71875,0,0,0.0,0.0,1.0
1625450709.1875,0,0,37.68203907118421,0.0,1.0
1625450709.65625,0,0,59.51700587977713,0.0,1.0
1625450710.125,0,0,0.0,0.0,1.0
1625450710.59375,0,0,44.99644214106082,0.0,1.0
1625450711.0625,0,0,0.0,0.0,1.0
1625450711.53125,0,0,175.5067480212392,0.0,1.0
1625450712.0,0,0,9.001472672988065,0.0,1.0
1625450712.46875,0,0,70.35363274967534,0.0,1.0
1625450712.9375,0,0,98.64229415671724,0.0,1.0
1625450713.40625,0,0,-0.7788008053669233,0.0,1.0
1625450713.875,0,0,38.53274750692112,0.0,1.0
1625450714.34375,0,0,0.0,0.0,1.0
1625450714.8125,0,0,116.52254677071096,0.0,1.0
1625450715.28125,0,0,53.14998865702409,0.0,1.0
1625450715.75,0,0,0.0,0.0,1.0
1625450716.21875,0,0,0.0,0.0,1.0
1625450716.6875,0,0,0.0,0.0,1.0
1625450717.15625,0,0,174.6739834824348,0.0,1.0
1625450717.625,0,0,62.108684713962894,0.0,1.0
1625450718.09375,0,0,0.0,0.0,1.0
1625450718.5625,0,0,0.0,0.0,1.0
1625450719.03125,0,0,94.66809362910574,0.0,1.0
1625450719.5,0,0,229.85398425946542,0.0,1.0
1625450719.96875,0,0,-15.134100969353469,0.0,1.0
1625450720.4375,0,0,71.76027477270634,0.0,1.0
1625450720.90625,0,0,214.8959274319581,0.0,1.0
1625450721.375,0,0,28.045306307185726,0.0,1.0
1625450721.84375,0,0,50.97985991361775,0.0,1.0
1625450722.3125,0,0,0.0,0.0,1.0
1625450722.78125,0,0,104.296902655698,0.0,1.0
1625450723.25,0,0,0.0,0.0,1.0
1625450723.71875,0,0,239.7600819216532,0.0,1.0
1625450724.1875,0,0,47.82888214165607,0.0,1.0
1625450724.65625,0,0,0.0,0.0,1.0
1625450725.125,0,0,250.42370038970068,0.0,1.0
1625450725.59375,0,0,0.0,0.0,1.0
1625450726.0625,0,0,72.50380271727389,0.0,1.0
1625450726.53125,0,0,29.368032354392195,0.0,1.0
1625450727.0,0,0,0.0,0.0,1.0
1625450727.46875,0,0,0.7884526086007361,0.0,1.0
1625450727.9375,0,0,54.54457676206376,0.0,1.0
1625450728.40625,0,0,0.0,0.0,1.0
1625450728.875,0,0,60.39369562895411,0.0,1.0
1625450729.34375,0,0,160.22534564229252,0.0,1.0
1625450729.8125,0,0,0.3820032279127081,0.0,1.0
1625450730.28125,0,0,48.56946136093214,0.0,1.0
1625450730.75,0,0,0.0,0.0,1.0
1625450731.21875,0,0,222.10819649669432,0.0,1.0
1625450731.6875,0,0,0.0,0.0,1.0
1625450732.15625,0,0,0.0,0.0,1.0
1625450732.625,0,0,45.68791159862641,0.0,1.0
1625450733.09375,0,0,213.87399990225512,0.0,1.0
1625450733.5625,0,0,-43.61060639242259,0.0,1.0
1625450734.03125,0,0,60.062930473321636,0.0,1.0
1625450734.5,0,0,113.3904915621576,0.0,1.0
1625450734.96875,0,0,0.0,0.0,1.0
1625450735.4375,0,0,64.52262488264398,0.0,1.0
1625450735.90625,0,0,0.0,0.0,1.0
1625450736.375,0,0,56.19174626408321,0.0,1.0
1625450736.84375,0,0,22.06635955892286,0.0,1.0
1625450737.3125,0,0,19.96711857927883,0.0,1.0
1625450737.78125,0,0,139.2722959053961,0.0,1.0
1625450738.25,0,0,0.0,0.0,1.0
1625450738.71875,0,0,51.38640749328868,0.0,1.0
1625450739.1875,0,0,278.4099928922377,0.0,1.0
1625450739.65625,0,0,0.0,0.0,1.0
1625450740.125,0,0,30.421227598227265,0.0,1.0
1625450740.59375,0,0,67.20803732688043,0.0,1.0
1625450741.0625,0,0,198.57621028088846,0.0,1.0
1625450741.53125,0,0,21.667043956684907,0.0,1.0
1625450742.0,0,0,0.0,0.0,1.0
1625450742.46875,0,0,64.96035798949258,0.0,1.0
1625450742.9375,0,0,259.0889531934385,0.0,1.0
1625450743.40625,0,0,-36.47153245190121,0.0,1.0
1625450743.875,0,0,59.244447385127266,0.0,1.0
1625450744.34375,0,0,0.0,0.0,1.0
1625450744.8125,0,0,266.41688858006603,0.0,1.0
1625450745.28125,0,0,68.2083360151994,0.0,1.0
1625450745.75,0,0,0.0,0.0,1.0
1625450746.21875,0,0,39.123644628482886,0.0,1.0
1625450746.6875,0,0,0.0,0.0,1.0
1625450747.15625,0,0,123.04745611378377,0.0,1.0
1625450747.625,0,0,17.07408245647497,0.0,1.0
1625450748.09375,0,0,52.646911406732265,0.0,1.0
1625450748.5625,0,0,0.0,0.0,1.0
1625450749.03125,0,0,96.22006760909822,0.0,1.0
1625450749.5,0,0,0.0,0.0,1.0
1625450749.96875,0,0,64.81029699421217,0.0,1.0
1625450750.4375,0,0,0.0,0.0,1.0
1625450750.90625,0,0,69.17590654573804,0.0,1.0
1625450751.375,0,0,63.358979063455756,0.0,1.0
1625450751.84375,0,0,0.0,0.0,1.0
1625450752.3125,0,0,25.99768274353408,0.0,1.0
1625450752.78125,0,0,29.11081880895254,0.0,1.0
1625450753.25,0,0,0.0,0.0,1.0
1625450753.71875,0,0,221.96035798753712,0.0,1.0
1625450754.1875,0,0,69.41686752293573,0.0,1.0
1625450754.65625,0,0,0.0,0.0,1.0
1625450755.125,0,0,43.7451726451068,0.0,1.0
1625450755.59375,0,0,51.10188013632705,0.0,1.0
1625450756.0625,0,0,0.0,0.0,1.0
1625450756.53125,0,0,57.061125900182894,0.0,1.0
1625450757.0,0,0,42.05475498239099,0.0,1.0
1625450757.46875,0,0,0.0,0.0,1.0
1625450757.9375,0,0,45.86162201672135,0.0,1.0
1625450758.40625,0,0,0.0,0.0,1.0
1625450758.875,0,0,0.0,0.0,1.0
1625450759.34375,0,0,31.767884281810044,0.0,1.0
1625450759.8125,0,0,0.0,0.0,1.0
1625450760.28125,0,0,44.50794785509764,0.0,1.0
1625450760.75,0,0,46.26991980016729,0.0,1.0
1625450761.21875,0,0,0.0,0.0,1.0
1625450761.6875,0,0,37.918005785276996,0.0,1.0
1625450762.15625,0,0,40.787029776989485,0.0,1.0
1625450762.625,0,0,0.0,0.0,1.0
1625450763.09375,0,0,46.652908937878586,0.0,1.0
1625450763.5625,0,0,0.0,0.0,1.0
1625450764.03125,0,0,44.256447895988344,0.0,1.0
1625450764.5,0,0,0.0,0.0,1.0
1625450764.96875,0,0,0.0,0.0,1.0
1625450765.4375,0,0,50.01324425824576,0.0,1.0
1625450765.90625,0,0,0.0,0.0,1.0
1625450766.375,0,0,46.24344765751623,0.0,1.0
1625450766.84375,0,0,41.919178637243796,0.0,1.0
1625450767.3125,0,0,0.0,0.0,1.0
1625450767.78125,0,0,49.13767827463479,0.0,1.0
1625450768.25,0,0,0.0,0.0,1.0
1625450768.71875,0,0,0.0,0.0,1.0
1625450769.1875,0,0,42.18515738545429,0.0,1.0
1625450769.65625,0,0,0.0,0.0,1.0
1625450770.125,0,0,60.053660261247785,0.0,1.0
1625450770.59375,0,0,111.75883515539705,0.0,1.0
1625450771.0625,0,0,-20.061238049237303,0.0,1.0
1625450771.53125,0,0,175.2838866270011,0.0,1.0
1625450772.0,0,0,155.5691089780181,0.0,1.0
1625450772.46875,0,0,-7.5735287375566775,0.0,1.0
1625450772.9375,0,0,171.7847940643903,0.0,1.0
1625450773.40625,0,0,-60.05122031059067,0.0,1.0
1625450773.875,0,0,212.40719563708433,0.0,1.0
1625450774.34375,0,0,0.0,0.0,1.0
1625450774.8125,0,0,68.7852807023523,0.0,1.0
1625450775.28125,0,0,0.0,0.0,1.0
1625450775.75,0,0,139.71871265344808,0.0,1.0
1625450776.21875,0,0,14.785638359862192,0.0,1.0
1625450776.6875,0,0,0.0,0.0,1.0
1625450777.15625,0,0,61.02148179346078,0.0,1.0
1625450777.625,0,0,91.21044581635933,0.0,1.0
1625450778.09375,0,0,232.6322495959002,0.0,1.0
1625450778.5625,0,0,60.796313608705724,0.0,1.0
1625450779.03125,0,0,0.0,0.0,1.0
1625450779.5,0,0,87.39384661676759,0.0,1.0
1625450779.96875,0,0,215.66327573329625,0.0,1.0
1625450780.4375,0,0,-46.082875274599004,0.0,1.0
1625450780.90625,0,0,119.8436414965618,0.0,1.0
1625450781.375,0,0,0.0,0.0,1.0
1625450781.84375,0,0,76.8250956737412,0.0,1.0
1625450782.3125,0,0,0.0,0.0,1.0
1625450782.78125,0,0,13.260031594891043,0.0,1.0
1625450783.25,0,0,0.0,0.0,1.0
1625450783.71875,0,0,99.31949048224817,0.0,1.0
1625450784.1875,0,0,24.65494350246374,0.0,1.0
1625450784.65625,0,0,0.0,0.0,1.0
1625450785.125,0,0,80.26254868287242,0.0,1.0
1625450785.59375,0,0,0.0,0.0,1.0
1625450786.0625,0,0,170.50080183368348,0.0,1.0
1625450786.53125,0,0,25.909649076200814,0.0,1.0
1625450787.0,0,0,0.0,0.0,1.0
1625450787.46875,0,0,60.35106152243813,0.0,1.0
1625450787.9375,0,0,273.36377551470713,0.0,1.0
1625450788.40625,0,0,-94.4565535863586,0.0,1.0
1625450788.875,0,0,98.22870487396754,0.0,1.0
1625450789.34375,0,0,0.0,0.0,1.0
1625450789.8125,0,0,72.64617861099059,0.0,1.0
1625450790.28125,0,0,131.75199636834287,0.0,1.0
1625450790.75,0,0,0.0,0.0,1.0
1625450791.21875,0,0,48.699424533985656,0.0,1.0
1625450791.6875,0,0,0.0,0.0,1.0
1625450792.15625,0,0,203.56687234233857,0.0,1.0
1625450792.625,0,0,75.4407713020784,0.0,1.0
1625450793.09375,0,0,0.0,0.0,1.0
1625450793.5625,0,0,32.49371087184599,0.0,1.0
1625450794.03125,0,0,272.45145782376136,0.0,1.0
1625450794.5,0,0,-72.3500660633577,0.0,1.0
1625450794.96875,0,0,90.3512956386682,0.0,1.0
1625450795.4375,0,0,0.0,0.0,1.0
1625450795.90625,0,0,166.75272850095502,0.0,1.0
1625450796.375,0,0,0.0,0.0,1.0
1625450796.84375,0,0,76.24240648937096,0.0,1.0
1625450797.3125,0,0,21.696113275741144,0.0,1.0
1625450797.78125,0,0,0.0,0.0,1.0
1625450798.25,0,0,293.5740110607232,0.0,1.0
1625450798.71875,0,0,0.0,0.0,1.0
1625450799.1875,0,0,65.54373660904703,0.0,1.0
1625450799.65625,0,0,57.80179803496439,0.0,1.0
1625450800.125,0,0,115.57738086740441,0.0,1.0
1625450800.59375,0,0,11.236086280210756,0.0,1.0
1625450801.0625,0,0,56.12853613493453,0.0,1.0
1625450801.53125,0,0,0.0,0.0,1.0
1625450802.0,0,0,55.06872925830148,0.0,1.0
1625450802.46875,0,0,123.64570419365526,0.0,1.0
1625450802.9375,0,0,65.20466761529484,0.0,1.0
1625450803.40625,0,0,0.0,0.0,1.0
1625450803.875,0,0,33.87132502185174,0.0,1.0
1625450804.34375,0,0,215.66158651468314,0.0,1.0
1625450804.8125,0,0,-14.15535718719448,0.0,1.0
1625450805.28125,0,0,57.06260980126321,0.0,1.0
1625450805.75,0,0,0.0,0.0,1.0
1625450806.21875,0,0,276.09882746871654,0.0,1.0
1625450806.6875,0,0,81.5557347920422,0.0,1.0
1625450807.15625,0,0,0.0,0.0,1.0
1625450807.625,0,0,38.76049911490087,0.0,1.0
1625450808.09375,0,0,241.22047875173746,0.0,1.0
1625450808.5625,0,0,-25.81609800142626,0.0,1.0
1625450809.03125,0,0,87.16982144924697,0.0,1.0
1625450809.5,0,0,0.0,0.0,1.0
1625450809.96875,0,0,52.665043618318755,0.0,1.0
1625450810.4375,0,0,0.0,0.0,1.0
1625450810.90625,0,0,96.45054119838315,0.0,1.0
1625450811.375,0,0,0.0,0.0,1.0
1625450811.84375,0,0,63.608349382450584,0.0,1.0
1625450812.3125,0,0,255.56200945337324,0.0,1.0
1625450812.78125,0,0,110.47851833893543,0.0,1.0
1625450813.25,0,0,0.0,0.0,1.0
1625450813.71875,0,0,93.5073748419358,0.0,1.0
1625450814.1875,0,0,0.0,0.0,1.0
1625450814.65625,0,0,32.25156019510414,0.0,1.0
1625450815.125,0,0,235.05498482682825,0.0,1.0
1625450815.59375,0,0,0.0,0.0,1.0
1625450816.0625,0,0,78.32064202546304,0.0,1.0
1625450816.53125,0,0,91.73610204060046,0.0,1.0
1625450817.0,0,0,0.0,0.0,1.0
1625450817.46875,0,0,21.112881056245115,0.0,1.0
1625450817.9375,0,0,0.0,0.0,1.0
1625450818.40625,0,0,54.496454149368425,0.0,1.0
1625450818.875,0,0,0.0,0.0,1.0
1625450819.34375,0,0,47.52645848823313,0.0,1.0
1625450819.8125,0,0,38.768741811117415,0.0,1.0
1625450820.28125,0,0,0.0,0.0,1.0
1625450820.75,0,0,49.677121446059616,0.0,1.0
1625450821.21875,0,0,0.0,0.0,1.0
1625450821.6875,0,0,44.51779361827777,0.0,1.0
1625450822.15625,0,0,44.52189470913949,0.0,1.0
1625450822.625,0,0,0.0,0.0,1.0
1625450823.09375,0,0,49.80797107965614,0.0,1.0
1625450823.5625,0,0,0.0,0.0,1.0
1625450824.03125,0,0,37.4761171003352,0.0,1.0
1625450824.5,0,0,0.0,0.0,1.0
1625450824.96875,0,0,0.0,0.0,1.0
1625450825.4375,0,0,45.26289770471754,0.0,1.0
1625450825.90625,0,0,0.0,0.0,2.0
1625450826.375,0,0,16.386230519289892,0.0,2.0
1625450826.84375,0,0,177.61106063323518,0.0,2.0
1625450827.3125,0,0,-44.968905902742364,0.0,2.0
1625450827.78125,0,0,73.81714582897942,0.0,2.0
1625450828.25,0,0,7.113303905844677,0.0,2.0
1625450828.71875,0,0,0.0,0.0,2.0
1625450829.1875,0,0,444.77690098405026,0.0,2.0
1625450829.65625,0,0,-388.9318571057224,0.0,2.0
1625450830.125,0,0,683.8092252199352,0.0,2.0
1625450830.59375,0,0,-76.19376622632745,0.0,2.0
1625450831.0625,0,0,-17.512592887979725,0.0,2.0
1625450831.53125,0,0,104.30868113827023,0.0,2.0
1625450832.0,0,0,0.0,0.0,2.0
1625450832.46875,0,0,86.12320794724081,0.0,2.0
1625450832.9375,0,0,18.869103089378438,0.0,2.0
1625450833.40625,0,0,62.296413027766036,0.0,2.0
1625450833.875,0,0,16.30720873063886,0.0,2.0
1625450834.34375,0,0,218.33976361154785,0.0,2.0
1625450834.8125,0,0,-20.506969159834803,0.0,2.0
1625450835.28125,0,0,62.50604486201105,0.0,2.0
1625450835.75,0,0,122.6238473057637,0.0,2.0
1625450836.21875,0,0,0.0,0.0,2.0
1625450836.6875,0,0,41.70183428411394,0.0,2.0
1625450837.15625,0,0,90.57373268931143,0.0,2.0
1625450837.625,0,0,0.0,0.0,2.0
1625450838.09375,0,0,117.32709630916288,0.0,2.0
1625450838.5625,0,0,72.18220657416788,0.0,2.0
1625450839.03125,0,0,0.0,0.0,2.0
1625450839.5,0,0,61.76634945271491,0.0,2.0
1625450839.96875,0,0,33.643969958294946,0.0,2.0
1625450840.4375,0,0,0.0,0.0,2.0
1625450840.90625,0,0,24.782651957877604,0.0,2.0
1625450841.375,0,0,24.076668091492525,0.0,2.0
1625450841.84375,0,0,0.0,0.0,2.0
1625450842.3125,0,0,35.16926190170351,0.0,2.0
1625450842.78125,0,0,56.306267386389095,0.0,2.0
1625450843.25,0,0,0.0,0.0,2.0
1625450843.71875,0,0,-34.34542918523979,0.0,2.0
1625450844.1875,0,0,0.0,0.0,2.0
1625450844.65625,0,0,0.0,0.0,2.0
1625450845.125,0,0,112.57756544066788,0.0,2.0
1625450845.59375,0,0,0.0,0.0,2.0
1625450846.0625,0,0,305.0206993626905,0.0,2.0
1625450846.53125,0,0,0.0,0.0,2.0
1625450847.0,0,0,-38.54373242032352,0.0,2.0
1625450847.46875,0,0,31.37894597396098,0.0,2.0
1625450847.9375,0,0,202.05447719358287,0.0,2.0
1625450848.40625,0,0,18.483070586298194,0.0,2.0
1625450848.875,0,0,0.0,0.0,2.0
1625450849.34375,0,0,216.9094079157869,0.0,2.0
1625450849.8125,0,0,0.0,0.0,2.0
1625450850.28125,0,0,52.80202070134212,0.0,2.0
1625450850.75,0,0,56.851008618217136,0.0,2.0
1625450851.21875,0,0,141.83375953041394,0.0,2.0
1625450851.6875,0,0,0.0,0.0,2.0
1625450852.15625,0,0,53.80258351513369,0.0,2.0
1625450852.625,0,0,0.0,0.0,2.0
1625450853.09375,0,0,-7.418764715581093,0.0,2.0
1625450853.5625,0,0,67.30503420389057,0.0,2.0
1625450854.03125,0,0,0.0,0.0,2.0
1625450854.5,0,0,28.355476889130987,0.0,2.0
1625450854.96875,0,0,48.40925820804453,0.0,2.0
1625450855.4375,0,0,0.0,0.0,2.0
1625450855.90625,0,0,58.07899723003783,0.0,2.0
1625450856.375,0,0,108.0301246595124,0.0,2.0
1625450856.84375,0,0,-74.80691080716456,0.0,2.0
1625450857.3125,0,0,80.24800735854822,0.0,2.0
1625450857.78125,0,0,0.0,0.0,2.0
1625450858.25,0,0,0.0,0.0,2.0
1625450858.71875,0,0,127.8781579374325,0.0,2.0
1625450859.1875,0,0,136.30930971573207,0.0,2.0
1625450859.65625,0,0,187.27336789875423,0.0,2.0
1625450860.125,0,0,17.31784705260577,0.0,2.0
1625450860.59375,0,0,0.0,0.0,2.0
1625450861.0625,0,0,197.3019157039106,0.0,2.0
1625450861.53125,0,0,38.08900233433642,0.0,2.0
1625450862.0,0,0,60.52307008253015,0.0,2.0
1625450862.46875,0,0,170.72108293261732,0.0,2.0
1625450862.9375,0,0,28.01384676940864,0.0,2.0
1625450863.40625,0,0,0.0,0.0,2.0
1625450863.875,0,0,59.21575694833528,0.0,2.0
1625450864.34375,0,0,93.92537081528312,0.0,2.0
1625450864.8125,0,0,0.0,0.0,2.0
1625450865.28125,0,0,62.55409465238264,0.0,2.0
1625450865.75,0,0,0.0,0.0,2.0
1625450866.21875,0,0,46.40545706641937,0.0,2.0
1625450866.6875,0,0,0.0,0.0,2.0
1625450867.15625,0,0,0.0,0.0,2.0
1625450867.625,0,0,-0.381592840470071,0.0,2.0
1625450868.09375,0,0,156.44473862422035,0.0,2.0
1625450868.5625,0,0,0.0,0.0,2.0
1625450869.03125,0,0,-57.12016413610188,0.0,2.0
1625450869.5,0,0,95.56456959319993,0.0,2.0
1625450869.96875,0,0,-93.07796144509372,0.0,2.0
1625450870.4375,0,0,331.6764651007832,0.0,2.0
1625450870.90625,0,0,8.633911411543934,0.0,2.0
1625450871.375,0,0,0.0,0.0,2.0
1625450871.84375,0,0,104.42683186501417,0.0,2.0
1625450872.3125,0,0,22.40948350371145,0.0,2.0
1625450872.78125,0,0,0.0,0.0,2.0
1625450873.25,0,0,98.69516084189799,0.0,2.0
1625450873.71875,0,0,144.40548397085956,0.0,2.0
1625450874.1875,0,0,0.0,0.0,2.0
1625450874.65625,0,0,176.35322279703985,0.0,2.0
1625450875.125,0,0,0.0,0.0,2.0
1625450875.59375,0,0,30.191805290391578,0.0,2.0
1625450876.0625,0,0,45.842436668529615,0.0,2.0
1625450876.53125,0,0,59.354467979643864,0.0,2.0
1625450877.0,0,0,0.0,0.0,2.0
1625450877.46875,0,0,45.93790680999373,0.0,2.0
1625450877.9375,0,0,0.0,0.0,2.0
1625450878.40625,0,0,22.20700720620112,0.0,2.0
1625450878.875,0,0,146.3461675498299,0.0,2.0
1625450879.34375,0,0,188.03816713465977,0.0,2.0
1625450879.8125,0,0,0.0,0.0,2.0
1625450880.28125,0,0,265.6528155440526,0.0,2.0
1625450880.75,0,0,234.23299378422033,0.0,2.0
1625450881.21875,0,0,0.0,0.0,2.0
1625450881.6875,0,0,-40.632340680340924,0.0,2.0
1625450882.15625,0,0,48.04887344276286,0.0,2.0
1625450882.625,0,0,217.92148202774482,0.0,2.0
1625450883.09375,0,0,0.0,0.0,2.0
1625450883.5625,0,0,-7.801043292768567,0.0,2.0
1625450884.03125,0,0,86.2986483524081,0.0,2.0
1625450884.5,0,0,33.777709851819516,0.0,2.0
1625450884.96875,0,0,0.0,0.0,2.0
1625450885.4375,0,0,33.710695590285056,0.0,2.0
1625450885.90625,0,0,36.21866029021162,0.0,2.0
1625450886.375,0,0,0.0,0.0,2.0
1625450886.84375,0,0,22.128308248720483,0.0,2.0
1625450887.3125,0,0,17.576192839220447,0.0,2.0
1625450887.78125,0,0,0.0,0.0,2.0
1625450888.25,0,0,81.59153870137378,0.0,2.0
1625450888.71875,0,0,30.581493495847777,0.0,2.0
1625450889.1875,0,0,33.177248096592926,0.0,2.0
1625450889.65625,0,0,10.139539266045068,0.0,2.0
1625450890.125,0,0,31.655773563556902,0.0,2.0
1625450890.59375,0,0,26.404629218572104,0.0,2.0
1625450891.0625,0,0,24.50734082146999,0.0,2.0
1625450891.53125,0,0,0.0,0.0,2.0
1625450892.0,0,0,32.874817869922204,0.0,2.0
1625450892.46875,0,0,31.180026832021625,0.0,2.0
1625450892.9375,0,0,0.0,0.0,2.0
1625450893.40625,0,0,0.0,0.0,2.0
1625450893.875,0,0,57.9258321939025,0.0,2.0
1625450894.34375,0,0,0.0,0.0,2.0
1625450894.8125,0,0,0.0,0.0,2.0
1625450895.28125,0,0,43.567026942242705,0.0,2.0
1625450895.75,0,0,354.68738996617475,0.0,2.0
1625450896.21875,0,0,0.0,0.0,2.0
1625450896.6875,0,0,275.2903468955367,0.0,2.0
1625450897.15625,0,0,7.090592588237782,0.0,2.0
1625450897.625,0,0,298.0760672900347,0.0,2.0
1625450898.09375,0,0,0.0,0.0,2.0
1625450898.5625,0,0,38.127432205379684,0.0,2.0
1625450899.03125,0,0,0.0,0.0,2.0
1625450899.5,0,0,56.29088222949484,0.0,2.0
1625450899.96875,0,0,51.9612324805851,0.0,2.0
1625450900.4375,0,0,0.0,0.0,2.0
1625450900.90625,0,0,34.494410877377135,0.0,2.0
1625450901.375,0,0,46.5089355548002,0.0,2.0
1625450901.84375,0,0,0.0,0.0,2.0
1625450902.3125,0,0,47.60112762137129,0.0,2.0
1625450902.78125,0,0,0.0,0.0,2.0
1625450903.25,0,0,41.61310400828818,0.0,2.0
1625450903.71875,0,0,0.0,0.0,2.0
1625450904.1875,0,0,0.0,0.0,2.0
1625450904.65625,0,0,54.49873537710301,0.0,2.0
1625450905.125,0,0,0.0,0.0,2.0
1625450905.59375,0,0,50.710050037256075,0.0,2.0
1625450906.0625,0,0,0.0,0.0,2.0
1625450906.53125,0,0,46.06662890321045,0.0,2.0
1625450907.0,0,0,0.0,0.0,2.0
1625450907.46875,0,0,44.55351410071907,0.0,2.0
1625450907.9375,0,0,43.31721918976588,0.0,2.0
1625450908.40625,0,0,0.0,0.0,2.0
1625450908.875,0,0,43.75028582593974,0.0,2.0
1625450909.34375,0,0,0.0,0.0,2.0
1625450909.8125,0,0,34.1438605125759,0.0,2.0
1625450910.28125,0,0,0.0,0.0,2.0
1625450910.75,0,0,0.0,0.0,2.0
1625450911.21875,0,0,49.62814603750186,0.0,2.0
1625450911.6875,0,0,0.0,0.0,2.0
1625450912.15625,0,0,50.272565650265065,0.0,2.0
1625450912.625,0,0,0.0,0.0,2.0
1625450913.09375,0,0,49.88065991659388,0.0,2.0
1625450913.5625,0,0,50.493897556845276,0.0,2.0
1625450914.03125,0,0,0.0,0.0,2.0
1625450914.5,0,0,46.066005724324775,0.0,2.0
1625450914.96875,0,0,0.0,0.0,2.0
1625450915.4375,0,0,43.620578574289944,0.0,2.0
1625450915.90625,0,0,0.0,0.0,2.0
1625450916.375,0,0,34.79200746096553,0.0,2.0
1625450916.84375,0,0,0.0,0.0,2.0
1625450917.3125,0,0,31.242103964446205,0.0,2.0
1625450917.78125,0,0,30.84360497182565,0.0,2.0
1625450918.25,0,0,0.0,0.0,2.0
1625450918.71875,0,0,45.5269972428434,0.0,2.0
1625450919.1875,0,0,0.0,0.0,2.0
1625450919.65625,0,0,0.0,0.0,2.0
1625450920.125,0,0,45.20603338661783,0.0,2.0
1625450920.59375,0,0,0.0,0.0,2.0
1625450921.0625,0,0,52.594396531496976,0.0,2.0
1625450921.53125,0,0,37.3258458081066,0.0,2.0
1625450922.0,0,0,0.0,0.0,2.0
1625450922.46875,0,0,34.7303104484146,0.0,2.0
1625450922.9375,0,0,0.0,0.0,2.0
1625450923.40625,0,0,37.45258313897796,0.0,2.0
1625450923.875,0,0,45.92745339659582,0.0,2.0
1625450924.34375,0,0,0.0,0.0,2.0
1625450924.8125,0,0,28.41655301500998,0.0,2.0
1625450925.28125,0,0,0.0,0.0,2.0
1625450925.75,0,0,58.984849888073114,0.0,2.0
1625450926.21875,0,0,0.0,0.0,2.0
1625450926.6875,0,0,31.544803005627575,0.0,2.0
1625450927.15625,0,0,38.21930932924419,0.0,2.0
1625450927.625,0,0,0.0,0.0,2.0
1625450928.09375,0,0,56.09303285510499,0.0,2.0
1625450928.5625,0,0,0.0,0.0,2.0
1625450929.03125,0,0,43.42792210262587,0.0,2.0
1625450929.5,0,0,0.0,0.0,2.0
1625450929.96875,0,0,0.0,0.0,2.0
1625450930.4375,0,0,69.76265624289188,0.0,2.0
1625450930.90625,0,0,0.0,0.0,2.0
1625450931.375,0,0,21.19244086871398,0.0,2.0
1625450931.84375,0,0,50.487351279478894,0.0,2.0
1625450932.3125,0,0,0.0,0.0,2.0
1625450932.78125,0,0,26.969355948060784,0.0,2.0
1625450933.25,0,0,0.0,0.0,2.0
1625450933.71875,0,0,33.17334117375242,0.0,2.0
1625450934.1875,0,0,37.23580969732029,0.0,2.0
1625450934.65625,0,0,0.0,0.0,2.0
1625450935.125,0,0,38.400104939277,0.0,2.0
1625450935.59375,0,0,0.0,0.0,2.0
1625450936.0625,0,0,0.0,0.0,2.0
1625450936.53125,0,0,42.644900370947745,0.0,2.0
1625450937.0,0,0,0.0,0.0,2.0
1625450937.46875,0,0,40.63507772380389,0.0,2.0
1625450937.9375,0,0,28.21834863193021,0.0,2.0
1625450938.40625,0,0,0.0,0.0,2.0
1625450938.875,0,0,53.55168229742811,0.0,2.0
1625450939.34375,0,0,47.766469562915255,0.0,2.0
1625450939.8125,0,0,0.0,0.0,2.0
1625450940.28125,0,0,51.39911859577053,0.0,2.0
1625450940.75,0,0,0.0,0.0,2.0
1625450941.21875,0,0,49.30244651746302,0.0,2.0
1625450941.6875,0,0,0.0,0.0,2.0
1625450942.15625,0,0,34.69553578533042,0.0,2.0
1625450942.625,0,0,0.0,0.0,2.0
1625450943.09375,0,0,23.318875541562214,0.0,2.0
1625450943.5625,0,0,11.048760745419457,0.0,2.0
1625450944.03125,0,0,0.0,0.0,2.0
1625450944.5,0,0,0.0,0.0,2.0
1625450944.96875,0,0,65.45854172909395,0.0,2.0
1625450945.4375,0,0,0.0,0.0,2.0
1625450945.90625,0,0,0.0,0.0,2.0
1625450946.375,0,0,57.08809746896957,0.0,2.0
1625450946.84375,0,0,39.394592036178175,0.0,2.0
1625450947.3125,0,0,0.0,0.0,2.0
1625450947.78125,0,0,48.92827133578153,0.0,2.0
1625450948.25,0,0,0.0,0.0,2.0
1625450948.71875,0,0,40.30058584347618,0.0,2.0
1625450949.1875,0,0,53.15749124346409,0.0,2.0
1625450949.65625,0,0,0.0,0.0,2.0
1625450950.125,0,0,25.588519405657916,0.0,2.0
1625450950.59375,0,0,39.70472769425063,0.0,2.0
1625450951.0625,0,0,0.0,0.0,2.0
1625450951.53125,0,0,32.90607733642217,0.0,2.0
1625450952.0,0,0,0.0,0.0,2.0
1625450952.46875,0,0,76.05238481145462,0.0,2.0
1625450952.9375,0,0,-1.5897284859194651,0.0,2.0
1625450953.40625,0,0,0.0,0.0,2.0
1625450953.875,0,0,76.47747410200309,0.0,2.0
1625450954.34375,0,0,14.852780320600864,0.0,2.0
1625450954.8125,0,0,0.0,0.0,2.0
1625450955.28125,0,0,26.52641668882597,0.0,2.0
1625450955.75,0,0,0.0,0.0,2.0
1625450956.21875,0,0,35.35453348375062,0.0,2.0
1625450956.6875,0,0,24.803532877451513,0.0,2.0
1625450957.15625,0,0,0.0,0.0,2.0
1625450957.625,0,0,32.92813323102994,0.0,2.0
1625450958.09375,0,0,40.01654768112172,0.0,2.0
1625450958.5625,0,0,0.0,0.0,2.0
1625450959.03125,0,0,35.38381604221914,0.0,2.0
1625450959.5,0,0,40.40123177464058,0.0,2.0
1625450959.96875,0,0,0.0,0.0,2.0
1625450960.4375,0,0,39.424015490659315,0.0,2.0
1625450960.90625,0,0,41.79847120294165,0.0,2.0
1625450961.375,0,0,0.0,0.0,2.0
1625450961.84375,0,0,35.62060812992842,0.0,2.0
1625450962.3125,0,0,0.0,0.0,2.0
1625450962.78125,0,0,34.7665952171812,0.0,2.0
1625450963.25,0,0,31.677471884974867,0.0,2.0
1625450963.71875,0,0,0.0,0.0,2.0
1625450964.1875,0,0,29.577282033224737,0.0,2.0
1625450964.65625,0,0,26.26584524721805,0.0,2.0
1625450965.125,0,0,0.0,0.0,2.0
1625450965.59375,0,0,37.4488860701853,0.0,2.0
1625450966.0625,0,0,34.994020749189794,0.0,2.0
1625450966.53125,0,0,0.0,0.0,2.0
1625450967.0,0,0,34.54673905719155,0.0,2.0
1625450967.46875,0,0,0.0,0.0,2.0
1625450967.9375,0,0,36.11638362042494,0.0,2.0
1625450968.40625,0,0,38.58251429873508,0.0,2.0
1625450968.875,0,0,0.0,0.0,2.0
1625450969.34375,0,0,35.80647899893989,0.0,2.0
1625450969.8125,0,0,0.0,0.0,2.0
1625450970.28125,0,0,37.4031729276094,0.0,2.0
1625450970.75,0,0,29.154099573805127,0.0,2.0
1625450971.21875,0,0,0.0,0.0,2.0
1625450971.6875,0,0,34.01095355961857,0.0,2.0
1625450972.15625,0,0,0.0,0.0,2.0
1625450972.625,0,0,41.533604710758596,0.0,2.0
1625450973.09375,0,0,47.46667503758413,0.0,2.0
1625450973.5625,0,0,0.0,0.0,2.0
1625450974.03125,0,0,45.58210361269013,0.0,2.0
1625450974.5,0,0,43.83823179454243,0.0,2.0
1625450974.96875,0,0,0.0,0.0,2.0
1625450975.4375,0,0,44.82593391784742,0.0,2.0
1625450975.90625,0,0,0.0,0.0,2.0
1625450976.375,0,0,42.57693469912758,0.0,2.0
1625450976.84375,0,0,37.23513090868923,0.0,2.0
1625450977.3125,0,0,0.0,0.0,2.0
1625450977.78125,0,0,35.88441229404538,0.0,2.0
1625450978.25,0,0,0.0,0.0,2.0
1625450978.71875,0,0,0.0,0.0,2.0
1625450979.1875,0,0,33.960085006097145,0.0,2.0
1625450979.65625,0,0,46.03730564137961,0.0,2.0
1625450980.125,0,0,0.0,0.0,2.0
1625450980.59375,0,0,44.42342175733457,0.0,2.0
1625450981.0625,0,0,0.0,0.0,2.0
1625450981.53125,0,0,41.89958767663402,0.0,2.0
1625450982.0,0,0,47.483542739583314,0.0,2.0
1625450982.46875,0,0,0.0,0.0,2.0
1625450982.9375,0,0,40.66963811387352,0.0,2.0
1625450983.40625,0,0,0.0,0.0,2.0
1625450983.875,0,0,0.0,0.0,2.0
1625450984.34375,0,0,33.22438950181439,0.0,2.0
1625450984.8125,0,0,37.37583194045264,0.0,2.0
1625450985.28125,0,0,0.0,0.0,2.0
1625450985.75,0,0,64.44369717698925,0.0,2.0
1625450986.21875,0,0,0.0,0.0,2.0
1625450986.6875,0,0,24.136575475069723,0.0,2.0
1625450987.15625,0,0,288.7358258053898,0.0,2.0
1625450987.625,0,0,14.553949501283515,0.0,2.0
1625450988.09375,0,0,249.96748840846212,0.0,2.0
1625450988.5625,0,0,0.0,0.0,2.0
1625450989.03125,0,0,22.877314672694304,0.0,2.0
1625450989.5,0,0,45.95858647558802,0.0,2.0
1625450989.96875,0,0,110.02782673949618,0.0,2.0
1625450990.4375,0,0,35.560788456939434,0.0,2.0
1625450990.90625,0,0,0.0,0.0,2.0
1625450991.375,0,0,27.217524202639268,0.0,2.0
1625450991.84375,0,0,20.43223512197714,0.0,2.0
1625450992.3125,0,0,0.0,0.0,2.0
1625450992.78125,0,0,0.0,0.0,2.0
1625450993.25,0,0,29.36330597518754,0.0,2.0
1625450993.71875,0,0,25.104303429694287,0.0,2.0
1625450994.1875,0,0,0.0,0.0,2.0
1625450994.65625,0,0,26.395580457865606,0.0,2.0
1625450995.125,0,0,33.1433536972188,0.0,2.0
1625450995.59375,0,0,0.0,0.0,2.0
1625450996.0625,0,0,27.807103970964157,0.0,2.0
1625450996.53125,0,0,0.0,0.0,2.0
1625450997.0,0,0,35.75788501931587,0.0,2.0
1625450997.46875,0,0,31.240172532670393,0.0,2.0
1625450997.9375,0,0,0.0,0.0,2.0
1625450998.40625,0,0,15.476472325346945,0.0,2.0
1625450998.875,0,0,154.57266400935367,0.0,2.0
1625450999.34375,0,0,0.0,0.0,2.0
1625450999.8125,0,0,173.55992010126093,0.0,2.0
1625451000.28125,0,0,0.0,0.0,2.0
1625451000.75,0,0,117.44314651447701,0.0,2.0
1625451001.21875,0,0,-15.90818390302542,0.0,2.0
1625451001.6875,0,0,140.44512826231502,0.0,2.0
1625451002.15625,0,0,29.89560418173215,0.0,2.0
1625451002.625,0,0,0.0,0.0,2.0
1625451003.09375,0,0,0.0,0.0,2.0
1625451003.5625,0,0,159.21819930373664,0.0,2.0
1625451004.03125,0,0,26.489955097673068,0.0,2.0
1625451004.5,0,0,80.49744222929436,0.0,2.0
1625451004.96875,0,0,0.0,0.0,2.0
1625451005.4375,0,0,42.68022835243528,0.0,2.0
1625451005.90625,0,0,43.10204941141597,0.0,2.0
1625451006.375,0,0,0.0,0.0,2.0
1625451006.84375,0,0,42.7276608346514,0.0,2.0
1625451007.3125,0,0,0.0,0.0,2.0
1625451007.78125,0,0,0.0,0.0,2.0
1625451008.25,0,0,48.531922412861576,0.0,2.0
1625451008.71875,0,0,0.0,0.0,2.0
1625451009.1875,0,0,36.150728535618654,0.0,2.0
1625451009.65625,0,0,39.137068623627506,0.0,2.0
1625451010.125,0,0,0.0,0.0,2.0
1625451010.59375,0,0,36.798414441524244,0.0,2.0
1625451011.0625,0,0,30.552772663738516,0.0,2.0
1625451011.53125,0,0,0.0,0.0,2.0
1625451012.0,0,0,35.79402863854492,0.0,2.0
1625451012.46875,0,0,32.36681848051778,0.0,2.0
1625451012.9375,0,0,0.0,0.0,3.0
1625451013.40625,0,0,36.26081466078208,0.0,3.0
1625451013.875,0,0,18.422212170324006,0.0,3.0
1625451014.34375,0,0,-43.11152375055941,0.0,3.0
1625451014.8125,0,0,184.8078013327843,0.0,3.0
1625451015.28125,0,0,0.0,0.0,3.0
1625451015.75,0,0,16.143635846087665,0.0,3.0
1625451016.21875,0,0,0.0,0.0,3.0
1625451016.6875,0,0,448.7652093228086,0.0,3.0
1625451017.15625,0,0,-353.8459757272278,0.0,3.0
1625451017.625,0,0,648.0237071331741,0.0,3.0
1625451018.09375,0,0,82.41809295437805,0.0,3.0
1625451018.5625,0,0,0.0,0.0,3.0
1625451019.03125,0,0,29.80440573704618,0.0,3.0
1625451019.5,0,0,84.16152704429048,0.0,3.0
1625451019.96875,0,0,0.0,0.0,3.0
1625451020.4375,0,0,16.013879831143722,0.0,3.0
1625451020.90625,0,0,52.81573887585258,0.0,3.0
1625451021.375,0,0,0.0,0.0,3.0
1625451021.84375,0,0,43.96920531823977,0.0,3.0
1625451022.3125,0,0,72.3608394820032,0.0,3.0
1625451022.78125,0,0,0.0,0.0,3.0
1625451023.25,0,0,66.74400538123571,0.0,3.0
1625451023.71875,0,0,50.084651108424076,0.0,3.0
1625451024.1875,0,0,61.67312854658651,0.0,3.0
1625451024.65625,0,0,0.0,0.0,3.0
1625451025.125,0,0,114.87482764192464,0.0,3.0
1625451025.59375,0,0,0.0,0.0,3.0
1625451026.0625,0,0,41.88675806673889,0.0,3.0
1625451026.53125,0,0,215.9228078054524,0.0,3.0
1625451027.0,0,0,-42.58364573110334,0.0,3.0
1625451027.46875,0,0,60.96478458132166,0.0,3.0
1625451027.9375,0,0,75.32633339238376,0.0,3.0
1625451028.40625,0,0,87.99453938560885,0.0,3.0
1625451028.875,0,0,30.192102955167798,0.0,3.0
1625451029.34375,0,0,37.42181072304947,0.0,3.0
1625451029.8125,0,0,0.0,0.0,3.0
1625451030.28125,0,0,21.86393517032924,0.0,3.0
1625451030.75,0,0,128.1342383598719,0.0,3.0
1625451031.21875,0,0,0.0,0.0,3.0
1625451031.6875,0,0,52.745500146532166,0.0,3.0
1625451032.15625,0,0,0.0,0.0,3.0
1625451032.625,0,0,88.38533189592745,0.0,3.0
1625451033.09375,0,0,30.266431234265774,0.0,3.0
1625451033.5625,0,0,-16.63356309100946,0.0,3.0
1625451034.03125,0,0,69.45992801045205,0.0,3.0
1625451034.5,0,0,135.87964371172498,0.0,3.0
1625451034.96875,0,0,0.0,0.0,3.0
1625451035.4375,0,0,28.710114145353387,0.0,3.0
1625451035.90625,0,0,0.0,0.0,3.0
1625451036.375,0,0,7.699222009754726,0.0,3.0
1625451036.84375,0,0,149.2634912999746,0.0,3.0
1625451037.3125,0,0,-47.8675185403195,0.0,3.0
1625451037.78125,0,0,46.58395817998703,0.0,3.0
1625451038.25,0,0,-3.2639719676133665,0.0,3.0
1625451038.71875,0,0,80.55629534504915,0.0,3.0
1625451039.1875,0,0,75.33459417910308,0.0,3.0
1625451039.65625,0,0,0.0,0.0,3.0
1625451040.125,0,0,0.0,0.0,3.0
1625451040.59375,0,0,165.858394709245,0.0,3.0
1625451041.0625,0,0,0.0,0.0,3.0
1625451041.53125,0,0,43.706415226892865,0.0,3.0
1625451042.0,0,0,0.0,0.0,3.0
1625451042.46875,0,0,114.9954157433518,0.0,3.0
1625451042.9375,0,0,0.0,0.0,3.0
1625451043.40625,0,0,32.83269644736638,0.0,3.0
1625451043.875,0,0,28.718102755493014,0.0,3.0
1625451044.34375,0,0,0.0,0.0,3.0
1625451044.8125,0,0,139.66779355173108,0.0,3.0
1625451045.28125,0,0,40.395044445746166,0.0,3.0
1625451045.75,0,0,0.0,0.0,3.0
1625451046.21875,0,0,40.38805143247473,0.0,3.0
1625451046.6875,0,0,92.16866966348177,0.0,3.0
1625451047.15625,0,0,-24.507085738579583,0.0,3.0
1625451047.625,0,0,54.44533672024059,0.0,3.0
1625451048.09375,0,0,0.0,0.0,3.0
1625451048.5625,0,0,78.88743892998579,0.0,3.0
1625451049.03125,0,0,0.0,0.0,3.0
1625451049.5,0,0,13.45037229576706,0.0,3.0
1625451049.96875,0,0,33.645919309414914,0.0,3.0
1625451050.4375,0,0,119.64108604447235,0.0,3.0
1625451050.90625,0,0,-10.33462191678791,0.0,3.0
1625451051.375,0,0,0.0,0.0,3.0
1625451051.84375,0,0,0.0,0.0,3.0
1625451052.3125,0,0,28.89525131281112,0.0,3.0
1625451052.78125,0,0,32.86474053874356,0.0,3.0
1625451053.25,0,0,35.96942340894942,0.0,3.0
1625451053.71875,0,0,48.01792786103332,0.0,3.0
1625451054.1875,0,0,0.0,0.0,3.0
1625451054.65625,0,0,91.64864831962842,0.0,3.0
1625451055.125,0,0,0.0,0.0,3.0
1625451055.59375,0,0,16.56357343935236,0.0,3.0
1625451056.0625,0,0,19.799423429040825,0.0,3.0
1625451056.53125,0,0,96.21233248439233,0.0,3.0
1625451057.0,0,0,-10.490240503306778,0.0,3.0
1625451057.46875,0,0,31.35654538522987,0.0,3.0
1625451057.9375,0,0,0.0,0.0,3.0
1625451058.40625,0,0,0.0,0.0,3.0
1625451058.875,0,0,133.98251235093855,0.0,3.0
1625451059.34375,0,0,39.50337365784202,0.0,3.0
1625451059.8125,0,0,7.299831985321269,0.0,3.0
1625451060.28125,0,0,0.0,0.0,3.0
1625451060.75,0,0,201.17832651104618,0.0,3.0
1625451061.21875,0,0,0.0,0.0,3.0
1625451061.6875,0,0,56.32538717532384,0.0,3.0
1625451062.15625,0,0,0.0,0.0,3.0
1625451062.625,0,0,29.109160848294167,0.0,3.0
1625451063.09375,0,0,0.0,0.0,3.0
1625451063.5625,0,0,25.579431896826435,0.0,3.0
1625451064.03125,0,0,17.618460222094196,0.0,3.0
1625451064.5,0,0,0.0,0.0,3.0
1625451064.96875,0,0,142.7659206825598,0.0,3.0
1625451065.4375,0,0,-29.44697217331596,0.0,3.0
1625451065.90625,0,0,39.619353469851205,0.0,3.0
1625451066.375,0,0,0.0,0.0,3.0
1625451066.84375,0,0,75.22700464249877,0.0,3.0
1625451067.3125,0,0,41.17974017676248,0.0,3.0
1625451067.78125,0,0,49.140751395315,0.0,3.0
1625451068.25,0,0,-6.3865471299008565,0.0,3.0
1625451068.71875,0,0,83.4212170458592,0.0,3.0
1625451069.1875,0,0,0.0,0.0,3.0
1625451069.65625,0,0,21.92494877126068,0.0,3.0
1625451070.125,0,0,0.0,0.0,3.0
1625451070.59375,0,0,0.0,0.0,3.0
1625451071.0625,0,0,31.96524473478727,0.0,3.0
1625451071.53125,0,0,0.0,0.0,3.0
1625451072.0,0,0,43.230697405727724,0.0,3.0
1625451072.46875,0,0,17.77574330491905,0.0,3.0
1625451072.9375,0,0,20.16600730315809,0.0,3.0
1625451073.40625,0,0,55.51743663747627,0.0,3.0
1625451073.875,0,0,0.0,0.0,3.0
1625451074.34375,0,0,32.10698753153917,0.0,3.0
1625451074.8125,0,0,39.354818412428365,0.0,3.0
1625451075.28125,0,0,0.0,0.0,3.0
1625451075.75,0,0,34.314613275946726,0.0,3.0
1625451076.21875,0,0,0.0,0.0,3.0
1625451076.6875,0,0,35.77049720290533,0.0,3.0
1625451077.15625,0,0,25.579230119521075,0.0,3.0
1625451077.625,0,0,0.0,0.0,3.0
1625451078.09375,0,0,23.620952638310275,0.0,3.0
1625451078.5625,0,0,0.0,0.0,3.0
1625451079.03125,0,0,19.89448148683325,0.0,3.0
1625451079.5,0,0,-0.6647734266260056,0.0,3.0
1625451079.96875,0,0,12.182541207698824,0.0,3.0
1625451080.4375,0,0,52.554246788137064,0.0,3.0
1625451080.90625,0,0,13.496020460812167,0.0,3.0
1625451081.375,0,0,41.422818419976224,0.0,3.0
1625451081.84375,0,0,0.0,0.0,3.0
1625451082.3125,0,0,20.714283514218813,0.0,3.0
1625451082.78125,0,0,6.5462710309421315,0.0,3.0
1625451083.25,0,0,0.0,0.0,3.0
1625451083.71875,0,0,84.54591274903433,0.0,3.0
1625451084.1875,0,0,0.0,0.0,3.0
1625451084.65625,0,0,21.42872147738568,0.0,3.0
1625451085.125,0,0,67.53139399297736,0.0,3.0
1625451085.59375,0,0,152.2871765691012,0.0,3.0
1625451086.0625,0,0,20.19301420049349,0.0,3.0
1625451086.53125,0,0,18.30268052340994,0.0,3.0
1625451087.0,0,0,-5.897513865993376,0.0,3.0
1625451087.46875,0,0,134.12317408898264,0.0,3.0
1625451087.9375,0,0,0.5380470683468942,0.0,3.0
1625451088.40625,0,0,6.010913680270499,0.0,3.0
1625451088.875,0,0,34.18290887687087,0.0,3.0
1625451089.34375,0,0,179.60705473281675,0.0,3.0
1625451089.8125,0,0,0.0,0.0,3.0
1625451090.28125,0,0,40.155430948800266,0.0,3.0
1625451090.75,0,0,-0.5047309778837823,0.0,3.0
1625451091.21875,0,0,-23.892968349778897,0.0,3.0
1625451091.6875,0,0,156.21841637911544,0.0,3.0
1625451092.15625,0,0,-32.96960548879317,0.0,3.0
1625451092.625,0,0,0.0,0.0,3.0
1625451093.09375,0,0,10.142495244145397,0.0,3.0
1625451093.5625,0,0,0.0,0.0,3.0
1625451094.03125,0,0,203.58733767746554,0.0,3.0
1625451094.5,0,0,29.198724208871656,0.0,3.0
1625451094.96875,0,0,0.0,0.0,3.0
1625451095.4375,0,0,8.596664843258432,0.0,3.0
1625451095.90625,0,0,129.97658601549688,0.0,3.0
1625451096.375,0,0,-66.5784009512728,0.0,3.0
1625451096.84375,0,0,64.8681841259333,0.0,3.0
1625451097.3125,0,0,0.0,0.0,3.0
1625451097.78125,0,0,18.683357209408562,0.0,3.0
1625451098.25,0,0,0.0,0.0,3.0
1625451098.71875,0,0,26.73688646502648,0.0,3.0
1625451099.1875,0,0,76.74007482974812,0.0,3.0
1625451099.65625,0,0,-7.5362374999934305,0.0,3.0
1625451100.125,0,0,-0.4467216185860945,0.0,3.0
1625451100.59375,0,0,13.493270397630079,0.0,3.0
1625451101.0625,0,0,12.343012284470598,0.0,3.0
1625451101.53125,0,0,1.876719471299354,0.0,3.0
1625451102.0,0,0,0.0,0.0,3.0
1625451102.46875,0,0,66.84548438262821,0.0,3.0
1625451102.9375,0,0,0.0,0.0,3.0
1625451103.40625,0,0,21.465141708039877,0.0,3.0
1625451103.875,0,0,-7.493983963277862,0.0,3.0
1625451104.34375,0,0,171.33420861648713,0.0,3.0
1625451104.8125,0,0,0.0,0.0,3.0
1625451105.28125,0,0,-26.298530010467044,0.0,3.0
1625451105.75,0,0,157.01629983737965,0.0,3.0
1625451106.21875,0,0,45.99305026162547,0.0,3.0
1625451106.6875,0,0,0.0,0.0,3.0
1625451107.15625,0,0,24.02413968019856,0.0,3.0
1625451107.625,0,0,0.0,0.0,3.0
1625451108.09375,0,0,0.0,0.0,3.0
1625451108.5625,0,0,26.830685617411827,0.0,3.0
1625451109.03125,0,0,0.0,0.0,3.0
1625451109.5,0,0,47.71024316658662,0.0,3.0
1625451109.96875,0,0,201.27786724722208,0.0,3.0
1625451110.4375,0,0,-17.296187028739016,0.0,3.0
1625451110.90625,0,0,45.476170670296135,0.0,3.0
1625451111.375,0,0,0.0,0.0,3.0
1625451111.84375,0,0,254.41342046470234,0.0,3.0
1625451112.3125,0,0,0.0,0.0,3.0
1625451112.78125,0,0,15.93834603648473,0.0,3.0
1625451113.25,0,0,61.305262286351926,0.0,3.0
1625451113.71875,0,0,-15.961927540558923,0.0,3.0
1625451114.1875,0,0,173.9143854005127,0.0,3.0
1625451114.65625,0,0,0.0,0.0,3.0
1625451115.125,0,0,0.0,0.0,3.0
1625451115.59375,0,0,37.877628782051865,0.0,3.0
1625451116.0625,0,0,152.09459937424407,0.0,3.0
1625451116.53125,0,0,4.995475625278703,0.0,3.0
1625451117.0,0,0,37.30397427621765,0.0,3.0
1625451117.46875,0,0,8.985469602412264,0.0,3.0
1625451117.9375,0,0,0.0,0.0,3.0
1625451118.40625,0,0,153.14217237252763,0.0,3.0
1625451118.875,0,0,0.0,0.0,3.0
1625451119.34375,0,0,24.64910481568942,0.0,3.0
1625451119.8125,0,0,159.8922664528857,0.0,3.0
1625451120.28125,0,0,0.0,0.0,3.0
1625451120.75,0,0,28.204253499943608,0.0,3.0
1625451121.21875,0,0,0.0,0.0,3.0
1625451121.6875,0,0,24.932990312561262,0.0,3.0
1625451122.15625,0,0,142.0132839741535,0.0,3.0
1625451122.625,0,0,0.0,0.0,3.0
1625451123.09375,0,0,51.10164987007732,0.0,3.0
1625451123.5625,0,0,-1.8037274269159171,0.0,3.0
1625451124.03125,0,0,169.235860335106,0.0,3.0
1625451124.5,0,0,20.536134705121956,0.0,3.0
1625451124.96875,0,0,0.0,0.0,3.0
1625451125.4375,0,0,33.5620356122053,0.0,3.0
1625451125.90625,0,0,48.56830931502522,0.0,3.0
1625451126.375,0,0,128.20478570051012,0.0,3.0
1625451126.84375,0,0,37.25929744489222,0.0,3.0
1625451127.3125,0,0,17.02050338635162,0.0,3.0
1625451127.78125,0,0,9.758823736606256,0.0,3.0
1625451128.25,0,0,24.082794542430115,0.0,3.0
1625451128.71875,0,0,0.0,0.0,3.0
1625451129.1875,0,0,0.0,0.0,3.0
1625451129.65625,0,0,57.198923081823175,0.0,3.0
1625451130.125,0,0,0.0,0.0,3.0
1625451130.59375,0,0,27.679098314008353,0.0,3.0
1625451131.0625,0,0,29.53273727125008,0.0,3.0
1625451131.53125,0,0,0.0,0.0,3.0
1625451132.0,0,0,16.530311733021023,0.0,3.0
1625451132.46875,0,0,37.75453755136438,0.0,3.0
1625451132.9375,0,0,0.0,0.0,3.0
1625451133.40625,0,0,19.372553405581183,0.0,3.0
1625451133.875,0,0,0.0,0.0,3.0
1625451134.34375,0,0,0.0,0.0,3.0
1625451134.8125,0,0,21.756552147905865,0.0,3.0
1625451135.28125,0,0,0.0,0.0,3.0
1625451135.75,0,0,21.139480137248494,0.0,3.0
1625451136.21875,0,0,23.27023607892964,0.0,3.0
1625451136.6875,0,0,0.0,0.0,3.0
1625451137.15625,0,0,35.79612740738318,0.0,3.0
1625451137.625,0,0,0.0,0.0,3.0
1625451138.09375,0,0,23.515790677963416,0.0,3.0
1625451138.5625,0,0,23.12117043235221,0.0,3.0
1625451139.03125,0,0,0.0,0.0,3.0
1625451139.5,0,0,22.59192807195984,0.0,3.0
1625451139.96875,0,0,0.0,0.0,3.0
1625451140.4375,0,0,0.0,0.0,3.0
1625451140.90625,0,0,13.42944147076015,0.0,3.0
1625451141.375,0,0,0.0,0.0,3.0
1625451141.84375,0,0,29.93567143436712,0.0,3.0
1625451142.3125,0,0,0.0,0.0,3.0
1625451142.78125,0,0,0.0,0.0,3.0
1625451143.25,0,0,47.30680861415302,0.0,3.0
1625451143.71875,0,0,0.0,0.0,3.0
1625451144.1875,0,0,21.817342212339728,0.0,3.0
1625451144.65625,0,0,122.9119657569953,0.0,3.0
1625451145.125,0,0,0.0,0.0,3.0
1625451145.59375,0,0,132.7771213219779,0.0,3.0
1625451146.0625,0,0,0.0,0.0,3.0
1625451146.53125,0,0,18.84537329713409,0.0,3.0
1625451147.0,0,0,41.19078480030757,0.0,3.0
1625451147.46875,0,0,0.0,0.0,3.0
1625451147.9375,0,0,15.163036323619153,0.0,3.0
1625451148.40625,0,0,109.7250480409464,0.0,3.0
1625451148.875,0,0,-0.5438074536163351,0.0,3.0
1625451149.34375,0,0,33.341758146936016,0.0,3.0
1625451149.8125,0,0,0.0,0.0,3.0
1625451150.28125,0,0,27.425185468348786,0.0,3.0
1625451150.75,0,0,0.0,0.0,3.0
1625451151.21875,0,0,23.27080260253209,0.0,3.0
1625451151.6875,0,0,183.51903957104057,0.0,3.0
1625451152.15625,0,0,-26.79361472633533,0.0,3.0
1625451152.625,0,0,83.66909845829015,0.0,3.0
1625451153.09375,0,0,0.0,0.0,3.0
1625451153.5625,0,0,142.5619484676761,0.0,3.0
1625451154.03125,0,0,-8.628028329983675,0.0,3.0
1625451154.5,0,0,0.0,0.0,3.0
1625451154.96875,0,0,126.48232318671137,0.0,3.0
1625451155.4375,0,0,22.54040476812536,0.0,3.0
1625451155.90625,0,0,0.0,0.0,3.0
1625451156.375,0,0,22.865647561694562,0.0,3.0
1625451156.84375,0,0,137.34353476873517,0.0,3.0
1625451157.3125,0,0,-29.746416317448112,0.0,3.0
1625451157.78125,0,0,64.15052809620013,0.0,3.0
1625451158.25,0,0,0.0,0.0,3.0
1625451158.71875,0,0,39.73335559967956,0.0,3.0
1625451159.1875,0,0,219.12851689258918,0.0,3.0
1625451159.65625,0,0,-0.08787978631112506,0.0,3.0
1625451160.125,0,0,27.453580348204696,0.0,3.0
1625451160.59375,0,0,6.431270441167998,0.0,3.0
1625451161.0625,0,0,209.5706684196647,0.0,3.0
1625451161.53125,0,0,22.853150951103647,0.0,3.0
1625451162.0,0,0,0.0,0.0,3.0
1625451162.46875,0,0,40.224826809542606,0.0,3.0
1625451162.9375,0,0,177.1886248766083,0.0,3.0
1625451163.40625,0,0,-15.03999001275927,0.0,3.0
1625451163.875,0,0,45.030754870661106,0.0,3.0
1625451164.34375,0,0,0.0,0.0,3.0
1625451164.8125,0,0,264.0262257800614,0.0,3.0
1625451165.28125,0,0,0.0,0.0,3.0
1625451165.75,0,0,42.840210141395126,0.0,3.0
1625451166.21875,0,0,17.449371554305618,0.0,3.0
1625451166.6875,0,0,0.0,0.0,3.0
1625451167.15625,0,0,205.2313495764188,0.0,3.0
1625451167.625,0,0,0.0,0.0,3.0
1625451168.09375,0,0,14.262363688319246,0.0,3.0
1625451168.5625,0,0,0.0,0.0,3.0
1625451169.03125,0,0,140.68286267045585,0.0,3.0
1625451169.5,0,0,0.0,0.0,3.0
1625451169.96875,0,0,42.54796945644356,0.0,3.0
1625451170.4375,0,0,0.0,0.0,3.0
1625451170.90625,0,0,143.01153598276764,0.0,3.0
1625451171.375,0,0,3.420013031042306,0.0,3.0
1625451171.84375,0,0,0.0,0.0,3.0
1625451172.3125,0,0,0.0,0.0,3.0
1625451172.78125,0,0,33.60390534443556,0.0,3.0
1625451173.25,0,0,0.0,0.0,3.0
1625451173.71875,0,0,98.37380594887289,0.0,3.0
1625451174.1875,0,0,0.0,0.0,3.0
1625451174.65625,0,0,0.0,0.0,3.0
1625451175.125,0,0,207.11787468571382,0.0,3.0
1625451175.59375,0,0,0.0,0.0,3.0
1625451176.0625,0,0,31.105871944667268,0.0,3.0
1625451176.53125,0,0,46.34517172908906,0.0,3.0
1625451177.0,0,0,157.8555025749567,0.0,3.0
1625451177.46875,0,0,0.311617727553631,0.0,3.0
1625451177.9375,0,0,37.914624079989935,0.0,3.0
1625451178.40625,0,0,0.0,0.0,3.0
1625451178.875,0,0,0.0,0.0,3.0
1625451179.34375,0,0,160.31400051543267,0.0,3.0
1625451179.8125,0,0,21.220354369299997,0.0,3.0
1625451180.28125,0,0,20.468668190240663,0.0,3.0
1625451180.75,0,0,0.0,0.0,3.0
1625451181.21875,0,0,265.77054798021106,0.0,3.0
1625451181.6875,0,0,0.0,0.0,3.0
1625451182.15625,0,0,18.92109152131756,0.0,3.0
1625451182.625,0,0,33.45780663650112,0.0,3.0
1625451183.09375,0,0,0.0,0.0,3.0
