timestamp,mean_pulse_rate,pulse_rate_std,mean_pulse_amplitude,pulse_amplitude_std,block
1625449848.5625,0,0,59.402344099306504,0.0,1.0
1625449849.03125,0,0,25.141770661255322,0.0,1.0
1625449849.5,0,0,0.0,0.0,1.0
1625449849.96875,0,0,0.0,0.0,1.0
1625449850.4375,0,0,0.0,0.0,1.0
1625449850.90625,0,0,115.94800906716763,0.0,1.0
1625449851.375,0,0,278.85425475472726,0.0,1.0
1625449851.84375,0,0,56.97308956428431,0.0,1.0
1625449852.3125,0,0,120.37528597706886,0.0,1.0
1625449852.78125,0,0,152.24239811012677,0.0,1.0
1625449853.25,0,0,282.2089762720997,0.0,1.0
1625449853.71875,0,0,-11.781429661854931,0.0,1.0
1625449854.1875,0,0,0.0,0.0,1.0
1625449854.65625,0,0,289.3926232918867,0.0,1.0
1625449855.125,0,0,385.4611499001027,0.0,1.0
1625449855.59375,0,0,0.0,0.0,1.0
1625449856.0625,0,0,67.17060263763986,0.0,1.0
1625449856.53125,0,0,0.0,0.0,1.0
1625449857.0,0,0,24.47333339350637,0.0,1.0
1625449857.46875,0,0,63.117957160095976,0.0,1.0
1625449857.9375,0,0,71.25068859222341,0.0,1.0
1625449858.40625,0,0,78.14429160537149,0.0,1.0
1625449858.875,0,0,101.75074981443257,0.0,1.0
1625449859.34375,0,0,41.973291131033186,0.0,1.0
1625449859.8125,0,0,0.0,0.0,1.0
1625449860.28125,0,0,28.03613914208135,0.0,1.0
1625449860.75,0,0,32.607475939923276,0.0,1.0
1625449861.21875,0,0,0.0,0.0,1.0
1625449861.6875,0,0,24.89909034343749,0.0,1.0
1625449862.15625,0,0,2.572878012899288,0.0,1.0
1625449862.625,0,0,95.59620350642798,0.0,1.0
1625449863.09375,0,0,75.43301732547936,0.0,1.0
1625449863.5625,0,0,54.218104230108594,0.0,1.0
1625449864.03125,0,0,27.95057725474195,0.0,1.0
1625449864.5,0,0,17.78552322960961,0.0,1.0
1625449864.96875,0,0,0.0,0.0,1.0
1625449865.4375,0,0,14.617388001193994,0.0,1.0
1625449865.90625,0,0,26.754486239445242,0.0,1.0
1625449866.375,0,0,0.0,0.0,1.0
1625449866.84375,0,0,-0.6633087406535239,0.0,1.0
1625449867.3125,0,0,85.4396513161599,0.0,1.0
1625449867.78125,0,0,121.16436924044051,0.0,1.0
1625449868.25,0,0,-1.5860415474825387,0.0,1.0
1625449868.71875,0,0,35.61290409163619,0.0,1.0
1625449869.1875,0,0,0.0,0.0,1.0
1625449869.65625,0,0,9.933483629818685,0.0,1.0
1625449870.125,0,0,14.540490760061795,0.0,1.0
1625449870.59375,0,0,14.688728169581434,0.0,1.0
1625449871.0625,0,0,0.0,0.0,1.0
1625449871.53125,0,0,17.65407367924107,0.0,1.0
1625449872.0,0,0,16.232907423797666,0.0,1.0
1625449872.46875,0,0,0.0,0.0,1.0
1625449872.9375,0,0,17.469319587152484,0.0,1.0
1625449873.40625,0,0,15.410130708551629,0.0,1.0
1625449873.875,0,0,0.0,0.0,1.0
1625449874.34375,0,0,13.953559132242113,0.0,1.0
1625449874.8125,0,0,0.0,0.0,1.0
1625449875.28125,0,0,12.965359581852509,0.0,1.0
1625449875.75,0,0,11.973845906329853,0.0,1.0
1625449876.21875,0,0,0.0,0.0,1.0
1625449876.6875,0,0,11.895923421668305,0.0,1.0
1625449877.15625,0,0,10.52103113929798,0.0,1.0
1625449877.625,0,0,0.0,0.0,1.0
1625449878.09375,0,0,13.350555749979277,0.0,1.0
1625449878.5625,0,0,12.83507285475936,0.0,1.0
1625449879.03125,0,0,0.0,0.0,1.0
1625449879.5,0,0,10.001229912446425,0.0,1.0
1625449879.96875,0,0,17.316521747246245,0.0,1.0
1625449880.4375,0,0,0.0,0.0,1.0
1625449880.90625,0,0,13.79475866248936,0.0,1.0
1625449881.375,0,0,-10.986656397854423,0.0,1.0
1625449881.84375,0,0,229.61726774778427,0.0,1.0
1625449882.3125,0,0,0.0,0.0,1.0
1625449882.78125,0,0,33.92912632601831,0.0,1.0
1625449883.25,0,0,19.09029651469817,0.0,1.0
1625449883.71875,0,0,0.0,0.0,1.0
1625449884.1875,0,0,7.7068531846639186,0.0,1.0
1625449884.65625,0,0,-5.869914789155459,0.0,1.0
1625449885.125,0,0,-6.237098412851681,0.0,1.0
1625449885.59375,0,0,127.45352053663423,0.0,1.0
1625449886.0625,0,0,-36.046179557751636,0.0,1.0
1625449886.53125,0,0,108.9997642333834,0.0,1.0
1625449887.0,0,0,7.75036831337512,0.0,1.0
1625449887.46875,0,0,-7.4922807565015335,0.0,1.0
1625449887.9375,0,0,104.23391836279096,0.0,1.0
1625449888.40625,0,0,-9.77638568885765,0.0,1.0
1625449888.875,0,0,28.039530179905125,0.0,1.0
1625449889.34375,0,0,0.0,0.0,1.0
1625449889.8125,0,0,19.183982381173823,0.0,1.0
1625449890.28125,0,0,18.4529621916028,0.0,1.0
1625449890.75,0,0,0.0,0.0,1.0
1625449891.21875,0,0,15.867685465443609,0.0,1.0
1625449891.6875,0,0,17.39934041219924,0.0,1.0
1625449892.15625,0,0,0.0,0.0,1.0
1625449892.625,0,0,12.324025552452124,0.0,1.0
1625449893.09375,0,0,37.84650994293405,0.0,1.0
1625449893.5625,0,0,0.0,0.0,1.0
1625449894.03125,0,0,69.61753303963431,0.0,1.0
1625449894.5,0,0,-32.99419195217944,0.0,1.0
1625449894.96875,0,0,-20.232164687443518,0.0,1.0
1625449895.4375,0,0,48.879802189616214,0.0,1.0
1625449895.90625,0,0,18.527636352696796,0.0,1.0
1625449896.375,0,0,0.0,0.0,1.0
1625449896.84375,0,0,24.256317573240594,0.0,1.0
1625449897.3125,0,0,-16.009690439694474,0.0,1.0
1625449897.78125,0,0,41.43873427836313,0.0,1.0
1625449898.25,0,0,22.944185911985297,0.0,1.0
1625449898.71875,0,0,0.0,0.0,1.0
1625449899.1875,0,0,25.433558439898693,0.0,1.0
1625449899.65625,0,0,28.354420480761778,0.0,1.0
1625449900.125,0,0,0.0,0.0,1.0
1625449900.59375,0,0,14.115047555864269,0.0,1.0
1625449901.0625,0,0,28.74704378983942,0.0,1.0
1625449901.53125,0,0,-7.636676324146816,0.0,1.0
1625449902.0,0,0,19.591099748108167,0.0,1.0
1625449902.46875,0,0,15.659796256499405,0.0,1.0
1625449902.9375,0,0,30.17710988958119,0.0,1.0
1625449903.40625,0,0,17.270904749146343,0.0,1.0
1625449903.875,0,0,0.0,0.0,1.0
1625449904.34375,0,0,22.389836579272895,0.0,1.0
1625449904.8125,0,0,38.44730152933416,0.0,1.0
1625449905.28125,0,0,0.0,0.0,1.0
1625449905.75,0,0,188.81263268379465,0.0,1.0
1625449906.21875,0,0,-4.889950893608093,0.0,1.0
1625449906.6875,0,0,0.0,0.0,1.0
1625449907.15625,0,0,23.741722945962472,0.0,1.0
1625449907.625,0,0,8.84764327582619,0.0,1.0
1625449908.09375,0,0,15.318383731422704,0.0,1.0
1625449908.5625,0,0,14.1267139439933,0.0,1.0
1625449909.03125,0,0,10.995930839759351,0.0,1.0
1625449909.5,0,0,12.099686389264537,0.0,1.0
1625449909.96875,0,0,16.60901776611845,0.0,1.0
1625449910.4375,0,0,0.0,0.0,1.0
1625449910.90625,0,0,24.146262041004384,0.0,1.0
1625449911.375,0,0,17.04952517578019,0.0,1.0
1625449911.84375,0,0,0.0,0.0,1.0
1625449912.3125,0,0,12.163777939827678,0.0,1.0
1625449912.78125,0,0,26.83846561114661,0.0,1.0
1625449913.25,0,0,1.2657292977549028,0.0,1.0
1625449913.71875,0,0,15.784893070286829,0.0,1.0
1625449914.1875,0,0,7.774094725339463,0.0,1.0
1625449914.65625,0,0,5.0308808995949885,0.0,1.0
1625449915.125,0,0,20.013599009094055,0.0,1.0
1625449915.59375,0,0,11.17383306782302,0.0,1.0
1625449916.0625,0,0,19.445587931629923,0.0,1.0
1625449916.53125,0,0,0.0,0.0,1.0
1625449917.0,0,0,11.68891215720887,0.0,1.0
1625449917.46875,0,0,22.287771800097527,0.0,1.0
1625449917.9375,0,0,0.0,0.0,1.0
1625449918.40625,0,0,28.778911514504543,0.0,1.0
1625449918.875,0,0,0.0,0.0,1.0
1625449919.34375,0,0,20.20585852656304,0.0,1.0
1625449919.8125,0,0,12.286132957431052,0.0,1.0
1625449920.28125,0,0,0.0,0.0,1.0
1625449920.75,0,0,11.8227938162772,0.0,1.0
1625449921.21875,0,0,0.0,0.0,1.0
1625449921.6875,0,0,0.0,0.0,1.0
1625449922.15625,0,0,5.585482580307204,0.0,1.0
1625449922.625,0,0,115.26074550149801,0.0,1.0
1625449923.09375,0,0,0.0,0.0,1.0
1625449923.5625,0,0,17.392044636670175,0.0,1.0
1625449924.03125,0,0,0.0,0.0,1.0
1625449924.5,0,0,339.86018708804704,0.0,1.0
1625449924.96875,0,0,-145.67690050690774,0.0,1.0
1625449925.4375,0,0,297.15058458198246,0.0,1.0
1625449925.90625,0,0,28.7555720888037,0.0,1.0
1625449926.375,0,0,18.06683419610897,0.0,1.0
1625449926.84375,0,0,15.54717498386909,0.0,1.0
1625449927.3125,0,0,288.6607152621194,0.0,1.0
1625449927.78125,0,0,0.0,0.0,1.0
1625449928.25,0,0,-26.664395782499174,0.0,1.0
1625449928.71875,0,0,16.891497531148964,0.0,1.0
1625449929.1875,0,0,0.0,0.0,1.0
1625449929.65625,0,0,56.940202875926104,0.0,1.0
1625449930.125,0,0,0.0,0.0,1.0
1625449930.59375,0,0,0.0,0.0,1.0
1625449931.0625,0,0,257.17704489531087,0.0,1.0
1625449931.53125,0,0,0.0,0.0,1.0
1625449932.0,0,0,254.3947238783252,0.0,1.0
1625449932.46875,0,0,0.0,0.0,1.0
1625449932.9375,0,0,66.95184944891456,0.0,1.0
1625449933.40625,0,0,92.09628178347829,0.0,1.0
1625449933.875,0,0,26.477578124782557,0.0,1.0
1625449934.34375,0,0,61.883133072733145,0.0,1.0
1625449934.8125,0,0,0.0,0.0,1.0
1625449935.28125,0,0,55.20315054751535,0.0,1.0
1625449935.75,0,0,17.102813772283397,0.0,1.0
1625449936.21875,0,0,0.0,0.0,1.0
1625449936.6875,0,0,50.478249705458445,0.0,1.0
1625449937.15625,0,0,0.0,0.0,1.0
1625449937.625,0,0,10.941176861872684,0.0,1.0
1625449938.09375,0,0,168.7779883559432,0.0,1.0
1625449938.5625,0,0,20.463300397497918,0.0,1.0
1625449939.03125,0,0,7.934556384441384,0.0,1.0
1625449939.5,0,0,55.029656139215916,0.0,1.0
1625449939.96875,0,0,-60.68578416019647,0.0,1.0
1625449940.4375,0,0,88.32893020489688,0.0,1.0
1625449940.90625,0,0,145.6288121522382,0.0,1.0
1625449941.375,0,0,0.0,0.0,1.0
1625449941.84375,0,0,19.656273485822094,0.0,1.0
1625449942.3125,0,0,91.27428290698428,0.0,1.0
1625449942.78125,0,0,25.699191552743024,0.0,1.0
1625449943.25,0,0,24.836857387425496,0.0,1.0
1625449943.71875,0,0,-22.338702854500045,0.0,1.0
1625449944.1875,0,0,27.289566211441105,0.0,1.0
1625449944.65625,0,0,24.509541392780957,0.0,1.0
1625449945.125,0,0,17.3199762603258,0.0,1.0
1625449945.59375,0,0,41.30081974491513,0.0,1.0
1625449946.0625,0,0,0.0,0.0,1.0
1625449946.53125,0,0,30.310908566379553,0.0,1.0
1625449947.0,0,0,10.893589510298973,0.0,1.0
1625449947.46875,0,0,0.0,0.0,1.0
1625449947.9375,0,0,46.17373242416293,0.0,1.0
1625449948.40625,0,0,31.460386207403893,0.0,1.0
1625449948.875,0,0,1.864527729429561,0.0,1.0
1625449949.34375,0,0,108.63722803616345,0.0,1.0
1625449949.8125,0,0,0.0,0.0,1.0
1625449950.28125,0,0,84.35885624621805,0.0,1.0
1625449950.75,0,0,0.0,0.0,1.0
1625449951.21875,0,0,13.163310931844144,0.0,1.0
1625449951.6875,0,0,47.094041954402755,0.0,1.0
1625449952.15625,0,0,0.0,0.0,1.0
1625449952.625,0,0,37.54724651473717,0.0,1.0
1625449953.09375,0,0,11.361504214621515,0.0,1.0
1625449953.5625,0,0,0.0,0.0,1.0
1625449954.03125,0,0,127.54372469186,0.0,1.0
1625449954.5,0,0,0.0,0.0,1.0
1625449954.96875,0,0,13.583900281290493,0.0,1.0
1625449955.4375,0,0,22.493971994431888,0.0,1.0
1625449955.90625,0,0,46.76226267633656,0.0,1.0
1625449956.375,0,0,0.0,0.0,1.0
1625449956.84375,0,0,22.57745121935639,0.0,1.0
1625449957.3125,0,0,10.8095447740283,0.0,1.0
1625449957.78125,0,0,3.8794416069468762,0.0,1.0
1625449958.25,0,0,61.220452878558696,0.0,1.0
1625449958.71875,0,0,24.258663733564145,0.0,1.0
1625449959.1875,0,0,0.0,0.0,1.0
1625449959.65625,0,0,10.030673625212009,0.0,1.0
1625449960.125,0,0,88.137490552207,0.0,1.0
1625449960.59375,0,0,0.0,0.0,1.0
1625449961.0625,0,0,53.42619912759445,0.0,1.0
1625449961.53125,0,0,84.4741521447352,0.0,1.0
1625449962.0,0,0,18.930845342577594,0.0,1.0
1625449962.46875,0,0,18.41743592889932,0.0,1.0
1625449962.9375,0,0,121.10591923640418,0.0,1.0
1625449963.40625,0,0,0.0,0.0,1.0
1625449963.875,0,0,35.67705263546185,0.0,1.0
1625449964.34375,0,0,120.92244030828003,0.0,1.0
1625449964.8125,0,0,0.0,0.0,1.0
1625449965.28125,0,0,2.6522001726253284,0.0,1.0
1625449965.75,0,0,-15.823158393383501,0.0,1.0
1625449966.21875,0,0,118.03507356008225,0.0,1.0
1625449966.6875,0,0,231.5343865496984,0.0,1.0
1625449967.15625,0,0,0.0,0.0,1.0
1625449967.625,0,0,77.45255627695177,0.0,1.0
1625449968.09375,0,0,8.186910989875253,0.0,1.0
1625449968.5625,0,0,0.0,0.0,1.0
1625449969.03125,0,0,17.69135237183529,0.0,1.0
1625449969.5,0,0,22.82961232412744,0.0,1.0
1625449969.96875,0,0,0.0,0.0,1.0
1625449970.4375,0,0,20.44462726311701,0.0,1.0
1625449970.90625,0,0,21.28784636862963,0.0,1.0
1625449971.375,0,0,0.0,0.0,1.0
1625449971.84375,0,0,20.361960517602274,0.0,1.0
1625449972.3125,0,0,0.0,0.0,1.0
1625449972.78125,0,0,14.236595136445372,0.0,1.0
1625449973.25,0,0,14.943346360660554,0.0,1.0
1625449973.71875,0,0,0.0,0.0,1.0
1625449974.1875,0,0,27.872153907228423,0.0,1.0
1625449974.65625,0,0,9.886749512946782,0.0,1.0
1625449975.125,0,0,-15.505575266605243,0.0,1.0
1625449975.59375,0,0,39.81837201297664,0.0,1.0
1625449976.0625,0,0,14.089908060065287,0.0,1.0
1625449976.53125,0,0,7.128686364809592,0.0,1.0
1625449977.0,0,0,27.13238548874337,0.0,1.0
1625449977.46875,0,0,0.0,0.0,1.0
1625449977.9375,0,0,19.73274017253087,0.0,1.0
1625449978.40625,0,0,11.931493525480194,0.0,1.0
1625449978.875,0,0,0.0,0.0,1.0
1625449979.34375,0,0,12.369574817415355,0.0,1.0
1625449979.8125,0,0,38.282132584588304,0.0,1.0
1625449980.28125,0,0,0.0,0.0,1.0
1625449980.75,0,0,-32.77007374005315,0.0,1.0
1625449981.21875,0,0,0.0,0.0,1.0
1625449981.6875,0,0,240.0176626717557,0.0,1.0
1625449982.15625,0,0,0.0,0.0,1.0
1625449982.625,0,0,0.0,0.0,1.0
1625449983.09375,0,0,538.0134378066476,0.0,1.0
1625449983.5625,0,0,-107.28603619237387,0.0,1.0
1625449984.03125,0,0,311.8297101476472,0.0,1.0
1625449984.5,0,0,0.0,0.0,1.0
1625449984.96875,0,0,292.43555782294675,0.0,1.0
1625449985.4375,0,0,16.65711769808493,0.0,1.0
1625449985.90625,0,0,226.13598174916805,0.0,1.0
1625449986.375,0,0,299.6209448677912,0.0,1.0
1625449986.84375,0,0,0.0,0.0,1.0
1625449987.3125,0,0,0.0,0.0,1.0
1625449987.78125,0,0,501.45929237208986,0.0,1.0
1625449988.25,0,0,0.0,0.0,1.0
1625449988.71875,0,0,146.4674493426224,0.0,1.0
1625449989.1875,0,0,0.0,0.0,1.0
1625449989.65625,0,0,423.22116030935166,0.0,1.0
1625449990.125,0,0,-62.515866190689145,0.0,1.0
1625449990.59375,0,0,207.34395850799297,0.0,1.0
1625449991.0625,0,0,0.0,0.0,1.0
1625449991.53125,0,0,0.0,0.0,1.0
1625449992.0,0,0,30.745388308074737,0.0,1.0
1625449992.46875,0,0,0.0,0.0,1.0
1625449992.9375,0,0,40.32601222012213,0.0,1.0
1625449993.40625,0,0,33.41545835941301,0.0,1.0
1625449993.875,0,0,0.0,0.0,1.0
1625449994.34375,0,0,35.06345410279613,0.0,1.0
1625449994.8125,0,0,0.0,0.0,1.0
1625449995.28125,0,0,2.6903702198637958,0.0,1.0
1625449995.75,0,0,157.00698762988307,0.0,1.0
1625449996.21875,0,0,0.0,0.0,1.0
1625449996.6875,0,0,0.0,0.0,1.0
1625449997.15625,0,0,97.12878267794672,0.0,1.0
1625449997.625,0,0,410.59005473868586,0.0,1.0
1625449998.09375,0,0,0.0,0.0,1.0
1625449998.5625,0,0,226.2940191622518,0.0,1.0
1625449999.03125,0,0,0.0,0.0,1.0
1625449999.5,0,0,-24.89228455229207,0.0,1.0
1625449999.96875,0,0,162.90066035787726,0.0,1.0
1625450000.4375,0,0,210.25940913710264,0.0,1.0
1625450000.90625,0,0,0.0,0.0,1.0
1625450001.375,0,0,6.46993086049793,0.0,1.0
1625450001.84375,0,0,126.97063467422421,0.0,1.0
1625450002.3125,0,0,-17.88609401814367,0.0,1.0
1625450002.78125,0,0,37.29285424676392,0.0,1.0
1625450003.25,0,0,40.63772779598926,0.0,1.0
1625450003.71875,0,0,0.0,0.0,1.0
1625450004.1875,0,0,85.8979976728535,0.0,1.0
1625450004.65625,0,0,3.9759177379053137,0.0,1.0
1625450005.125,0,0,10.237004867195482,0.0,1.0
1625450005.59375,0,0,11.147893376512256,0.0,1.0
1625450006.0625,0,0,38.78264006596223,0.0,1.0
1625450006.53125,0,0,-4.185295897834386,0.0,1.0
1625450007.0,0,0,49.00141749783925,0.0,1.0
1625450007.46875,0,0,0.0,0.0,1.0
1625450007.9375,0,0,0.0,0.0,1.0
1625450008.40625,0,0,26.265289701834696,0.0,1.0
1625450008.875,0,0,0.0,0.0,1.0
1625450009.34375,0,0,199.09717390619574,0.0,1.0
1625450009.8125,0,0,0.0,0.0,1.0
1625450010.28125,0,0,262.95420535742034,0.0,1.0
1625450010.75,0,0,0.0,0.0,1.0
1625450011.21875,0,0,41.18920785786244,0.0,1.0
1625450011.6875,0,0,16.542184005944172,0.0,1.0
1625450012.15625,0,0,36.91215354838361,0.0,1.0
1625450012.625,0,0,0.0,0.0,1.0
1625450013.09375,0,0,18.164455642099046,0.0,1.0
1625450013.5625,0,0,12.897556776757616,0.0,1.0
1625450014.03125,0,0,5.4766751729909515,0.0,1.0
1625450014.5,0,0,31.324448804798507,0.0,1.0
1625450014.96875,0,0,5.29694320499372,0.0,1.0
1625450015.4375,0,0,0.0,0.0,1.0
1625450015.90625,0,0,129.1754277095144,0.0,1.0
1625450016.375,0,0,9.571829540777644,0.0,1.0
1625450016.84375,0,0,4.171823335316358,0.0,1.0
1625450017.3125,0,0,25.8406359634011,0.0,1.0
1625450017.78125,0,0,8.869608631050985,0.0,1.0
1625450018.25,0,0,0.0,0.0,1.0
1625450018.71875,0,0,19.715956167746672,0.0,1.0
1625450019.1875,0,0,0.0,0.0,1.0
1625450019.65625,0,0,32.47835125366038,0.0,1.0
1625450020.125,0,0,25.04893087531263,0.0,1.0
1625450020.59375,0,0,27.54521932180063,0.0,1.0
1625450021.0625,0,0,18.85751735281895,0.0,1.0
1625450021.53125,0,0,12.414541040358596,0.0,1.0
1625450022.0,0,0,0.0,0.0,1.0
1625450022.46875,0,0,0.0,0.0,1.0
1625450022.9375,0,0,26.665850704112106,0.0,1.0
1625450023.40625,0,0,0.0,0.0,1.0
1625450023.875,0,0,13.329708249860047,0.0,1.0
1625450024.34375,0,0,86.87857524295234,0.0,1.0
1625450024.8125,0,0,0.0,0.0,1.0
1625450025.28125,0,0,-9.439963492142375,0.0,1.0
1625450025.75,0,0,-8.274046031021257,0.0,1.0
1625450026.21875,0,0,157.76815113366908,0.0,1.0
1625450026.6875,0,0,-12.780731334201851,0.0,1.0
1625450027.15625,0,0,-18.61467204700405,0.0,1.0
1625450027.625,0,0,170.99946689890282,0.0,1.0
1625450028.09375,0,0,153.94090858024282,0.0,1.0
1625450028.5625,0,0,36.66130262923546,0.0,1.0
1625450029.03125,0,0,371.26394585617226,0.0,1.0
1625450029.5,0,0,15.429140218847802,0.0,1.0
1625450029.96875,0,0,0.0,0.0,1.0
1625450030.4375,0,0,0.0,0.0,1.0
1625450030.90625,0,0,278.1020806175196,0.0,1.0
1625450031.375,0,0,0.0,0.0,1.0
1625450031.84375,0,0,345.1673845280145,0.0,1.0
1625450032.3125,0,0,156.14533129000498,0.0,1.0
1625450032.78125,0,0,-5.741928254095363,0.0,1.0
1625450033.25,0,0,-3.7612085320400475,0.0,1.0
1625450033.71875,0,0,20.88219713451162,0.0,1.0
1625450034.1875,0,0,48.49732364854193,0.0,1.0
1625450034.65625,0,0,81.9670865967936,0.0,1.0
1625450035.125,0,0,152.56540553278106,0.0,1.0
1625450035.59375,0,0,0.0,0.0,1.0
1625450036.0625,0,0,178.38358490228796,0.0,1.0
1625450036.53125,0,0,113.52789018709213,0.0,1.0
1625450037.0,0,0,-13.277619893947689,0.0,1.0
1625450037.46875,0,0,0.0,0.0,1.0
1625450037.9375,0,0,125.6639075364653,0.0,1.0
1625450038.40625,0,0,-1.1847227338189126,0.0,1.0
1625450038.875,0,0,0.0,0.0,1.0
1625450039.34375,0,0,0.0,0.0,1.0
1625450039.8125,0,0,153.47692257396565,0.0,1.0
1625450040.28125,0,0,124.58207595642273,0.0,1.0
1625450040.75,0,0,326.0790268475963,0.0,1.0
1625450041.21875,0,0,0.0,0.0,1.0
1625450041.6875,0,0,28.76888086906748,0.0,1.0
1625450042.15625,0,0,45.359580138464025,0.0,1.0
1625450042.625,0,0,175.52955516910492,0.0,1.0
1625450043.09375,0,0,0.0,0.0,1.0
1625450043.5625,0,0,-28.05443905983076,0.0,1.0
1625450044.03125,0,0,216.4359217093905,0.0,1.0
1625450044.5,0,0,71.51598422845966,0.0,1.0
1625450044.96875,0,0,39.81527185991327,0.0,1.0
1625450045.4375,0,0,7.520479514514682,0.0,1.0
1625450045.90625,0,0,0.0,0.0,1.0
1625450046.375,0,0,-5.717964989828747,0.0,1.0
1625450046.84375,0,0,198.84810038035548,0.0,1.0
1625450047.3125,0,0,-298.92841336255464,0.0,1.0
1625450047.78125,0,0,335.0994012815543,0.0,1.0
1625450048.25,0,0,0.0,0.0,1.0
1625450048.71875,0,0,0.0,0.0,1.0
1625450049.1875,0,0,87.34568752881722,0.0,1.0
1625450049.65625,0,0,39.055310254475536,0.0,1.0
1625450050.125,0,0,0.0,0.0,1.0
1625450050.59375,0,0,32.20863768742223,0.0,1.0
1625450051.0625,0,0,0.0,0.0,1.0
1625450051.53125,0,0,50.788135049137466,0.0,1.0
1625450052.0,0,0,0.0,0.0,1.0
1625450052.46875,0,0,25.75881898842203,0.0,1.0
1625450052.9375,0,0,27.035194004644012,0.0,1.0
1625450053.40625,0,0,0.0,0.0,1.0
1625450053.875,0,0,24.830880053256056,0.0,1.0
1625450054.34375,0,0,0.0,0.0,1.0
1625450054.8125,0,0,21.23696911499592,0.0,1.0
1625450055.28125,0,0,19.79791578100323,0.0,1.0
1625450055.75,0,0,0.0,0.0,1.0
1625450056.21875,0,0,20.187208262302647,0.0,1.0
1625450056.6875,0,0,19.000371242048203,0.0,1.0
1625450057.15625,0,0,0.0,0.0,1.0
1625450057.625,0,0,23.356644756065418,0.0,1.0
1625450058.09375,0,0,25.38587624160313,0.0,1.0
1625450058.5625,0,0,0.0,0.0,1.0
1625450059.03125,0,0,21.815253061443553,0.0,1.0
1625450059.5,0,0,0.0,0.0,1.0
1625450059.96875,0,0,0.0,0.0,1.0
1625450060.4375,0,0,19.534961589518286,0.0,1.0
1625450060.90625,0,0,0.0,0.0,1.0
1625450061.375,0,0,0.0,0.0,1.0
1625450061.84375,0,0,23.054749748012053,0.0,1.0
1625450062.3125,0,0,0.0,0.0,1.0
1625450062.78125,0,0,21.936256597629384,0.0,1.0
1625450063.25,0,0,0.0,0.0,1.0
1625450063.71875,0,0,0.0,0.0,1.0
1625450064.1875,0,0,15.520499703010815,0.0,1.0
1625450064.65625,0,0,0.0,0.0,1.0
1625450065.125,0,0,17.57025386667565,0.0,1.0
1625450065.59375,0,0,15.05855839917447,0.0,1.0
1625450066.0625,0,0,0.0,0.0,1.0
1625450066.53125,0,0,15.04555174558544,0.0,1.0
1625450067.0,0,0,19.308768184105936,0.0,1.0
1625450067.46875,0,0,0.0,0.0,1.0
1625450067.9375,0,0,20.620254907736424,0.0,1.0
1625450068.40625,0,0,23.66413691055161,0.0,1.0
1625450068.875,0,0,0.0,0.0,1.0
1625450069.34375,0,0,25.125310776447066,0.0,1.0
1625450069.8125,0,0,0.0,0.0,1.0
1625450070.28125,0,0,24.881912409086908,0.0,1.0
1625450070.75,0,0,0.0,0.0,1.0
1625450071.21875,0,0,22.326515380129184,0.0,1.0
1625450071.6875,0,0,16.19401143551227,0.0,1.0
1625450072.15625,0,0,0.0,0.0,1.0
1625450072.625,0,0,16.598408052104226,0.0,1.0
1625450073.09375,0,0,0.0,0.0,1.0
1625450073.5625,0,0,22.536022901242145,0.0,1.0
1625450074.03125,0,0,20.29336741329641,0.0,1.0
1625450074.5,0,0,0.0,0.0,1.0
1625450074.96875,0,0,18.596288815973796,0.0,1.0
1625450075.4375,0,0,0.0,0.0,1.0
1625450075.90625,0,0,18.82417294671559,0.0,1.0
1625450076.375,0,0,17.19407127703065,0.0,1.0
1625450076.84375,0,0,0.0,0.0,1.0
1625450077.3125,0,0,14.682403126172936,0.0,1.0
1625450077.78125,0,0,14.848114721520506,0.0,1.0
1625450078.25,0,0,0.0,0.0,1.0
1625450078.71875,0,0,17.8027754125898,0.0,1.0
1625450079.1875,0,0,19.614828548366443,0.0,1.0
1625450079.65625,0,0,0.0,0.0,1.0
1625450080.125,0,0,23.38267908902643,0.0,1.0
1625450080.59375,0,0,22.004999587256215,0.0,1.0
1625450081.0625,0,0,0.0,0.0,1.0
1625450081.53125,0,0,22.618295966499307,0.0,1.0
1625450082.0,0,0,0.0,0.0,1.0
1625450082.46875,0,0,20.227742188964132,0.0,1.0
1625450082.9375,0,0,0.0,0.0,1.0
1625450083.40625,0,0,21.016341740233095,0.0,1.0
1625450083.875,0,0,19.484221336152693,0.0,1.0
1625450084.34375,0,0,0.0,0.0,1.0
1625450084.8125,0,0,14.481570307651243,0.0,1.0
1625450085.28125,0,0,0.0,0.0,1.0
1625450085.75,0,0,11.058668262054647,0.0,1.0
1625450086.21875,0,0,12.993807766275614,0.0,1.0
1625450086.6875,0,0,0.0,0.0,1.0
1625450087.15625,0,0,16.510077842733974,0.0,1.0
1625450087.625,0,0,19.059586530341978,0.0,1.0
1625450088.09375,0,0,0.0,0.0,1.0
1625450088.5625,0,0,19.610802111964283,0.0,1.0
1625450089.03125,0,0,0.0,0.0,1.0
1625450089.5,0,0,0.0,0.0,1.0
1625450089.96875,0,0,19.71030713082856,0.0,1.0
1625450090.4375,0,0,0.0,0.0,1.0
1625450090.90625,0,0,17.30609702020774,0.0,1.0
1625450091.375,0,0,0.0,0.0,1.0
1625450091.84375,0,0,18.43109488075327,0.0,1.0
1625450092.3125,0,0,14.448754347218626,0.0,1.0
1625450092.78125,0,0,0.0,0.0,1.0
1625450093.25,0,0,15.029926154186988,0.0,1.0
1625450093.71875,0,0,16.748160840980344,0.0,1.0
1625450094.1875,0,0,0.0,0.0,1.0
1625450094.65625,0,0,14.662485970479388,0.0,1.0
1625450095.125,0,0,0.0,0.0,1.0
1625450095.59375,0,0,16.745469149977318,0.0,1.0
1625450096.0625,0,0,15.292508214716,0.0,1.0
1625450096.53125,0,0,0.0,0.0,1.0
1625450097.0,0,0,15.365197072440479,0.0,1.0
1625450097.46875,0,0,15.437986982277152,0.0,1.0
1625450097.9375,0,0,0.0,0.0,1.0
1625450098.40625,0,0,13.147459166705842,0.0,1.0
1625450098.875,0,0,0.0,0.0,1.0
1625450099.34375,0,0,8.006235400053672,0.0,1.0
1625450099.8125,0,0,135.47676240464816,0.0,1.0
1625450100.28125,0,0,97.2449594268021,0.0,1.0
1625450100.75,0,0,0.0,0.0,1.0
1625450101.21875,0,0,49.30168760494422,0.0,1.0
1625450101.6875,0,0,5.581586234299309,0.0,1.0
1625450102.15625,0,0,63.04009763045343,0.0,1.0
1625450102.625,0,0,52.51807737481484,0.0,1.0
1625450103.09375,0,0,0.39388721507594915,0.0,1.0
1625450103.5625,0,0,173.1780708021404,0.0,1.0
1625450104.03125,0,0,0.0,0.0,1.0
1625450104.5,0,0,22.580032931845224,0.0,1.0
1625450104.96875,0,0,0.0,0.0,1.0
1625450105.4375,0,0,16.85924620627468,0.0,1.0
1625450105.90625,0,0,12.18430966849678,0.0,1.0
1625450106.375,0,0,0.0,0.0,1.0
1625450106.84375,0,0,15.856199478974853,0.0,1.0
1625450107.3125,0,0,22.31574691242562,0.0,1.0
1625450107.78125,0,0,0.0,0.0,1.0
1625450108.25,0,0,15.191290436912535,0.0,1.0
1625450108.71875,0,0,0.0,0.0,1.0
1625450109.1875,0,0,20.93589009607398,0.0,1.0
1625450109.65625,0,0,14.710635646233076,0.0,1.0
1625450110.125,0,0,0.0,0.0,1.0
1625450110.59375,0,0,17.11860719724766,0.0,1.0
1625450111.0625,0,0,10.66446343026193,0.0,1.0
1625450111.53125,0,0,0.0,0.0,1.0
1625450112.0,0,0,18.149972527337418,0.0,1.0
1625450112.46875,0,0,20.095871193325923,0.0,1.0
1625450112.9375,0,0,0.0,0.0,1.0
1625450113.40625,0,0,20.738879462621586,0.0,1.0
1625450113.875,0,0,0.0,0.0,1.0
1625450114.34375,0,0,20.60028986557343,0.0,1.0
1625450114.8125,0,0,17.074040837381922,0.0,1.0
1625450115.28125,0,0,0.0,0.0,1.0
1625450115.75,0,0,16.469153111690694,0.0,1.0
1625450116.21875,0,0,0.0,0.0,1.0
1625450116.6875,0,0,14.283771494685501,0.0,1.0
1625450117.15625,0,0,0.0,0.0,1.0
1625450117.625,0,0,0.0,0.0,1.0
1625450118.09375,0,0,15.09935572289965,0.0,1.0
1625450118.5625,0,0,0.0,0.0,1.0
1625450119.03125,0,0,13.558499778109324,0.0,1.0
1625450119.5,0,0,0.0,0.0,1.0
1625450119.96875,0,0,0.0,0.0,1.0
1625450120.4375,0,0,12.707769767291062,0.0,1.0
1625450120.90625,0,0,14.132041599016429,0.0,1.0
1625450121.375,0,0,0.0,0.0,1.0
1625450121.84375,0,0,16.04786397354266,0.0,1.0
1625450122.3125,0,0,16.1606411797939,0.0,1.0
1625450122.78125,0,0,0.0,0.0,1.0
1625450123.25,0,0,16.316709446238296,0.0,1.0
1625450123.71875,0,0,0.0,0.0,1.0
1625450124.1875,0,0,16.900338278315814,0.0,1.0
1625450124.65625,0,0,14.02340579326,0.0,1.0
1625450125.125,0,0,0.0,0.0,1.0
1625450125.59375,0,0,12.64725707392707,0.0,1.0
1625450126.0625,0,0,0.0,0.0,1.0
1625450126.53125,0,0,10.391610607339635,0.0,1.0
1625450127.0,0,0,0.0,0.0,1.0
1625450127.46875,0,0,0.0,0.0,1.0
1625450127.9375,0,0,15.294073766122676,0.0,1.0
1625450128.40625,0,0,0.0,0.0,1.0
1625450128.875,0,0,13.90268725625162,0.0,1.0
1625450129.34375,0,0,11.94141479623453,0.0,1.0
1625450129.8125,0,0,0.0,0.0,1.0
1625450130.28125,0,0,11.697063907561686,0.0,1.0
1625450130.75,0,0,11.210186562384767,0.0,1.0
1625450131.21875,0,0,0.0,0.0,1.0
1625450131.6875,0,0,10.44618380070903,0.0,1.0
1625450132.15625,0,0,13.298946637646075,0.0,1.0
1625450132.625,0,0,0.0,0.0,1.0
1625450133.09375,0,0,17.954891125998724,0.0,1.0
1625450133.5625,0,0,0.0,0.0,1.0
1625450134.03125,0,0,13.280944200072389,0.0,1.0
1625450134.5,0,0,11.495972393493156,0.0,1.0
1625450134.96875,0,0,0.0,0.0,1.0
1625450135.4375,0,0,14.474092274058286,0.0,1.0
1625450135.90625,0,0,0.0,0.0,1.0
1625450136.375,0,0,11.873949871654034,0.0,1.0
1625450136.84375,0,0,11.301982893239638,0.0,1.0
1625450137.3125,0,0,0.0,0.0,1.0
1625450137.78125,0,0,12.607207034833657,0.0,1.0
1625450138.25,0,0,15.848159280746728,0.0,1.0
1625450138.71875,0,0,0.0,0.0,1.0
1625450139.1875,0,0,16.205252551106753,0.0,1.0
1625450139.65625,0,0,0.0,0.0,1.0
1625450140.125,0,0,16.15178668985965,0.0,1.0
1625450140.59375,0,0,15.275854351896275,0.0,1.0
1625450141.0625,0,0,0.0,0.0,1.0
1625450141.53125,0,0,14.581582231186236,0.0,1.0
1625450142.0,0,0,0.0,0.0,1.0
1625450142.46875,0,0,0.0,0.0,1.0
1625450142.9375,0,0,10.879795383993521,0.0,1.0
1625450143.40625,0,0,15.191225701248039,0.0,1.0
1625450143.875,0,0,0.0,0.0,1.0
1625450144.34375,0,0,16.222758608736903,0.0,1.0
1625450144.8125,0,0,0.0,0.0,1.0
1625450145.28125,0,0,15.632397081861278,0.0,1.0
1625450145.75,0,0,16.563225018419278,0.0,1.0
1625450146.21875,0,0,0.0,0.0,1.0
1625450146.6875,0,0,14.585189710149363,0.0,1.0
1625450147.15625,0,0,13.989881567095724,0.0,1.0
1625450147.625,0,0,0.0,0.0,1.0
1625450148.09375,0,0,10.162663890725522,0.0,1.0
1625450148.5625,0,0,0.0,0.0,1.0
1625450149.03125,0,0,14.186794802843727,0.0,1.0
1625450149.5,0,0,15.289533992036146,0.0,1.0
1625450149.96875,0,0,0.0,0.0,1.0
1625450150.4375,0,0,14.20886416683215,0.0,1.0
1625450150.90625,0,0,0.0,0.0,1.0
1625450151.375,0,0,0.0,0.0,1.0
1625450151.84375,0,0,15.198347712158343,0.0,1.0
1625450152.3125,0,0,0.0,0.0,1.0
1625450152.78125,0,0,15.7679704211046,0.0,1.0
1625450153.25,0,0,13.341902606210805,0.0,1.0
1625450153.71875,0,0,0.0,0.0,1.0
1625450154.1875,0,0,11.495230261304217,0.0,1.0
1625450154.65625,0,0,0.0,0.0,1.0
1625450155.125,0,0,0.0,0.0,1.0
1625450155.59375,0,0,16.706678021584565,0.0,1.0
1625450156.0625,0,0,0.0,0.0,1.0
1625450156.53125,0,0,18.03005372268556,0.0,1.0
1625450157.0,0,0,17.17382960057814,0.0,1.0
1625450157.46875,0,0,0.0,0.0,1.0
1625450157.9375,0,0,26.8962137560973,0.0,1.0
1625450158.40625,0,0,0.0,0.0,1.0
1625450158.875,0,0,0.0,0.0,1.0
1625450159.34375,0,0,118.48482133494797,0.0,1.0
1625450159.8125,0,0,76.69709802612907,0.0,1.0
1625450160.28125,0,0,15.618728365142694,0.0,1.0
1625450160.75,0,0,16.71063663301384,0.0,1.0
1625450161.21875,0,0,0.0,0.0,1.0
1625450161.6875,0,0,8.338187302150281,0.0,1.0
1625450162.15625,0,0,0.0,0.0,1.0
1625450162.625,0,0,19.874295024786537,0.0,1.0
1625450163.09375,0,0,12.124375363536831,0.0,1.0
1625450163.5625,0,0,0.0,0.0,1.0
1625450164.03125,0,0,13.955083094512672,0.0,1.0
1625450164.5,0,0,0.0,0.0,1.0
1625450164.96875,0,0,14.42754181776138,0.0,1.0
1625450165.4375,0,0,16.433042459519505,0.0,1.0
1625450165.90625,0,0,0.0,0.0,1.0
1625450166.375,0,0,13.668274475820274,0.0,1.0
1625450166.84375,0,0,13.436066183396852,0.0,1.0
1625450167.3125,0,0,0.0,0.0,1.0
1625450167.78125,0,0,17.001304586044636,0.0,1.0
1625450168.25,0,0,15.097898987900935,0.0,1.0
1625450168.71875,0,0,0.0,0.0,1.0
1625450169.1875,0,0,13.537859043784588,0.0,1.0
1625450169.65625,0,0,29.73073975956582,0.0,1.0
1625450170.125,0,0,0.0,0.0,1.0
1625450170.59375,0,0,23.79929511549651,0.0,1.0
1625450171.0625,0,0,25.077866391451085,0.0,1.0
1625450171.53125,0,0,0.0,0.0,1.0
1625450172.0,0,0,9.910399226681585,0.0,1.0
1625450172.46875,0,0,0.0,0.0,1.0
1625450172.9375,0,0,23.574065963176068,0.0,1.0
1625450173.40625,0,0,23.2130057900209,0.0,1.0
1625450173.875,0,0,-15.187965061042993,0.0,1.0
1625450174.34375,0,0,7.03763900472137,0.0,1.0
1625450174.8125,0,0,30.421760512019983,0.0,1.0
1625450175.28125,0,0,-11.828680181523785,0.0,1.0
1625450175.75,0,0,11.25146240317068,0.0,1.0
1625450176.21875,0,0,15.973196048515247,0.0,1.0
1625450176.6875,0,0,0.0,0.0,1.0
1625450177.15625,0,0,11.450467297454276,0.0,1.0
1625450177.625,0,0,0.0,0.0,1.0
1625450178.09375,0,0,8.789840886100817,0.0,1.0
1625450178.5625,0,0,8.331798609057373,0.0,1.0
1625450179.03125,0,0,0.0,0.0,1.0
1625450179.5,0,0,10.013980224247183,0.0,1.0
1625450179.96875,0,0,8.174425137610669,0.0,1.0
1625450180.4375,0,0,0.0,0.0,1.0
1625450180.90625,0,0,11.901456162227769,0.0,1.0
1625450181.375,0,0,9.57483648633606,0.0,1.0
1625450181.84375,0,0,0.0,0.0,1.0
1625450182.3125,0,0,8.75286923848432,0.0,1.0
1625450182.78125,0,0,0.0,0.0,1.0
1625450183.25,0,0,11.122721338073555,0.0,1.0
1625450183.71875,0,0,7.786479168525651,0.0,1.0
1625450184.1875,0,0,0.0,0.0,1.0
1625450184.65625,0,0,10.200138773801317,0.0,1.0
1625450185.125,0,0,7.799276250585829,0.0,1.0
1625450185.59375,0,0,0.0,0.0,1.0
1625450186.0625,0,0,20.138284955472663,0.0,1.0
1625450186.53125,0,0,14.982520553544306,0.0,1.0
1625450187.0,0,0,0.0,0.0,1.0
1625450187.46875,0,0,21.065977416207016,0.0,1.0
1625450187.9375,0,0,0.0,0.0,1.0
1625450188.40625,0,0,14.65369793822991,0.0,1.0
1625450188.875,0,0,13.279315383350884,0.0,1.0
1625450189.34375,0,0,0.0,0.0,1.0
1625450189.8125,0,0,14.609665638075082,0.0,1.0
1625450190.28125,0,0,0.0,0.0,1.0
1625450190.75,0,0,12.454655947073503,0.0,1.0
1625450191.21875,0,0,13.835725198688607,0.0,1.0
1625450191.6875,0,0,0.0,0.0,1.0
1625450192.15625,0,0,14.485706808431157,0.0,1.0
1625450192.625,0,0,0.0,0.0,1.0
1625450193.09375,0,0,13.523050768508297,0.0,1.0
1625450193.5625,0,0,11.63018325344867,0.0,1.0
1625450194.03125,0,0,0.0,0.0,1.0
1625450194.5,0,0,13.194725820477823,0.0,1.0
1625450194.96875,0,0,12.027533495927774,0.0,1.0
1625450195.4375,0,0,0.0,0.0,1.0
1625450195.90625,0,0,13.827358227613548,0.0,1.0
1625450196.375,0,0,13.418213674308392,0.0,1.0
1625450196.84375,0,0,0.0,0.0,1.0
1625450197.3125,0,0,16.744121173969656,0.0,1.0
1625450197.78125,0,0,0.0,0.0,1.0
1625450198.25,0,0,15.911360701044337,0.0,1.0
1625450198.71875,0,0,17.147370280155553,0.0,1.0
1625450199.1875,0,0,0.0,0.0,1.0
1625450199.65625,0,0,17.393825611873243,0.0,1.0
1625450200.125,0,0,0.0,0.0,1.0
1625450200.59375,0,0,0.0,0.0,1.0
1625450201.0625,0,0,18.13513905460628,0.0,1.0
1625450201.53125,0,0,0.0,0.0,1.0
1625450202.0,0,0,16.5351572175242,0.0,1.0
1625450202.46875,0,0,14.64844179056388,0.0,1.0
1625450202.9375,0,0,0.0,0.0,1.0
1625450203.40625,0,0,15.000811035212282,0.0,1.0
1625450203.875,0,0,17.70015174278798,0.0,1.0
1625450204.34375,0,0,0.0,0.0,1.0
1625450204.8125,0,0,18.846466120876737,0.0,1.0
1625450205.28125,0,0,0.0,0.0,1.0
1625450205.75,0,0,19.231699913377238,0.0,1.0
1625450206.21875,0,0,18.709735645525782,0.0,1.0
1625450206.6875,0,0,0.0,0.0,1.0
1625450207.15625,0,0,20.412164329979948,0.0,1.0
1625450207.625,0,0,16.23939576844039,0.0,1.0
1625450208.09375,0,0,0.0,0.0,1.0
1625450208.5625,0,0,18.18607748150438,0.0,1.0
1625450209.03125,0,0,18.334455164577044,0.0,1.0
1625450209.5,0,0,0.0,0.0,1.0
1625450209.96875,0,0,21.483435470846803,0.0,1.0
1625450210.4375,0,0,0.0,0.0,1.0
1625450210.90625,0,0,0.0,0.0,1.0
1625450211.375,0,0,20.624267255217937,0.0,1.0
1625450211.84375,0,0,0.0,0.0,1.0
1625450212.3125,0,0,20.113579073239865,0.0,1.0
1625450212.78125,0,0,18.09136269639706,0.0,1.0
1625450213.25,0,0,0.0,0.0,1.0
1625450213.71875,0,0,19.13470549710754,0.0,1.0
1625450214.1875,0,0,22.431227870745044,0.0,1.0
1625450214.65625,0,0,0.0,0.0,1.0
1625450215.125,0,0,21.385413962466036,0.0,1.0
1625450215.59375,0,0,0.0,0.0,1.0
1625450216.0625,0,0,15.630921448509945,0.0,1.0
1625450216.53125,0,0,161.69903357169954,0.0,1.0
1625450217.0,0,0,96.98874849629807,0.0,1.0
1625450217.46875,0,0,300.8196023443691,0.0,1.0
1625450217.9375,0,0,88.50523209709718,0.0,1.0
1625450218.40625,0,0,0.0,0.0,1.0
1625450218.875,0,0,9.681727922274513,0.0,1.0
1625450219.34375,0,0,14.505585025314556,0.0,1.0
1625450219.8125,0,0,0.0,0.0,1.0
1625450220.28125,0,0,27.847163340299524,0.0,1.0
1625450220.75,0,0,19.1116867119422,0.0,1.0
1625450221.21875,0,0,0.0,0.0,1.0
1625450221.6875,0,0,19.76985464804055,0.0,1.0
1625450222.15625,0,0,0.0,0.0,1.0
1625450222.625,0,0,20.467871947757374,0.0,1.0
1625450223.09375,0,0,19.843633540088383,0.0,1.0
1625450223.5625,0,0,0.0,0.0,1.0
1625450224.03125,0,0,14.022382585202338,0.0,1.0
1625450224.5,0,0,-15.646836775995107,0.0,1.0
1625450224.96875,0,0,84.73223506226566,0.0,1.0
1625450225.4375,0,0,4.27861456530881,0.0,1.0
1625450225.90625,0,0,23.268148567581935,0.0,1.0
1625450226.375,0,0,0.0,0.0,1.0
1625450226.84375,0,0,16.520809111252525,0.0,1.0
1625450227.3125,0,0,0.0,0.0,1.0
1625450227.78125,0,0,16.620932387512706,0.0,1.0
1625450228.25,0,0,17.156722660412353,0.0,1.0
1625450228.71875,0,0,0.0,0.0,1.0
1625450229.1875,0,0,15.996572441568146,0.0,1.0
1625450229.65625,0,0,0.0,0.0,1.0
1625450230.125,0,0,14.964035991279605,0.0,1.0
1625450230.59375,0,0,15.31731325847786,0.0,1.0
1625450231.0625,0,0,0.0,0.0,1.0
1625450231.53125,0,0,15.08803270000463,0.0,1.0
1625450232.0,0,0,0.0,0.0,1.0
1625450232.46875,0,0,15.490031898401387,0.0,1.0
1625450232.9375,0,0,15.734005012412222,0.0,1.0
1625450233.40625,0,0,0.0,0.0,1.0
1625450233.875,0,0,15.895121197317838,0.0,1.0
1625450234.34375,0,0,0.0,0.0,1.0
1625450234.8125,0,0,16.883328852538977,0.0,1.0
1625450235.28125,0,0,14.073219313836548,0.0,1.0
1625450235.75,0,0,0.0,0.0,1.0
1625450236.21875,0,0,21.704515006944263,0.0,1.0
1625450236.6875,0,0,22.10543461524467,0.0,1.0
1625450237.15625,0,0,0.0,0.0,1.0
1625450237.625,0,0,21.80418492819785,0.0,1.0
1625450238.09375,0,0,0.0,0.0,1.0
1625450238.5625,0,0,22.21015262436381,0.0,1.0
1625450239.03125,0,0,23.780436122666327,0.0,1.0
1625450239.5,0,0,0.0,0.0,1.0
1625450239.96875,0,0,20.07451441591013,0.0,1.0
1625450240.4375,0,0,17.409167259954916,0.0,1.0
1625450240.90625,0,0,0.0,0.0,1.0
1625450241.375,0,0,16.681352450508122,0.0,1.0
1625450241.84375,0,0,19.418171008375126,0.0,1.0
1625450242.3125,0,0,0.0,0.0,1.0
1625450242.78125,0,0,21.913753246677942,0.0,1.0
1625450243.25,0,0,0.0,0.0,1.0
1625450243.71875,0,0,22.056944228284863,0.0,1.0
1625450244.1875,0,0,24.30694762679654,0.0,1.0
1625450244.65625,0,0,0.0,0.0,1.0
1625450245.125,0,0,21.618582291148783,0.0,1.0
1625450245.59375,0,0,0.0,0.0,1.0
1625450246.0625,0,0,19.785442936636287,0.0,1.0
1625450246.53125,0,0,17.27660005560711,0.0,1.0
1625450247.0,0,0,0.0,0.0,1.0
1625450247.46875,0,0,13.739066531870277,0.0,1.0
1625450247.9375,0,0,15.563530394383765,0.0,1.0
1625450248.40625,0,0,0.0,0.0,1.0
1625450248.875,0,0,18.759069956441532,0.0,1.0
1625450249.34375,0,0,18.641440945050785,0.0,1.0
1625450249.8125,0,0,0.0,0.0,1.0
1625450250.28125,0,0,20.939888777200903,0.0,1.0
1625450250.75,0,0,20.280792098423593,0.0,1.0
1625450251.21875,0,0,0.0,0.0,1.0
1625450251.6875,0,0,20.97573438022929,0.0,1.0
1625450252.15625,0,0,0.0,0.0,1.0
1625450252.625,0,0,18.820764299013074,0.0,1.0
1625450253.09375,0,0,18.672508132621683,0.0,1.0
1625450253.5625,0,0,0.0,0.0,1.0
1625450254.03125,0,0,15.929661053575355,0.0,1.0
1625450254.5,0,0,18.481020496889137,0.0,1.0
1625450254.96875,0,0,0.0,0.0,1.0
1625450255.4375,0,0,18.329011204471833,0.0,1.0
1625450255.90625,0,0,0.0,0.0,1.0
1625450256.375,0,0,17.112721081659313,0.0,1.0
1625450256.84375,0,0,18.686129964097912,0.0,1.0
1625450257.3125,0,0,0.0,0.0,1.0
1625450257.78125,0,0,14.8011894272616,0.0,1.0
1625450258.25,0,0,16.81748592089439,0.0,1.0
1625450258.71875,0,0,0.0,0.0,1.0
1625450259.1875,0,0,19.363460964733545,0.0,1.0
1625450259.65625,0,0,20.240860132185464,0.0,1.0
1625450260.125,0,0,0.0,0.0,1.0
1625450260.59375,0,0,20.210854998713014,0.0,1.0
1625450261.0625,0,0,20.796116074006772,0.0,1.0
1625450261.53125,0,0,0.0,0.0,1.0
1625450262.0,0,0,19.101896485085085,0.0,1.0
1625450262.46875,0,0,0.0,0.0,1.0
1625450262.9375,0,0,19.50599275374257,0.0,1.0
1625450263.40625,0,0,14.937555641094972,0.0,1.0
1625450263.875,0,0,0.0,0.0,1.0
1625450264.34375,0,0,16.017076918704277,0.0,1.0
1625450264.8125,0,0,19.017265332677383,0.0,1.0
1625450265.28125,0,0,0.0,0.0,1.0
1625450265.75,0,0,22.265547749965524,0.0,1.0
1625450266.21875,0,0,18.0284591541394,0.0,1.0
1625450266.6875,0,0,0.0,0.0,1.0
1625450267.15625,0,0,18.584880977536987,0.0,1.0
1625450267.625,0,0,0.0,0.0,1.0
1625450268.09375,0,0,16.200385796428307,0.0,1.0
1625450268.5625,0,0,14.896205986148665,0.0,1.0
1625450269.03125,0,0,0.0,0.0,1.0
1625450269.5,0,0,15.526092800434945,0.0,1.0
1625450269.96875,0,0,17.854578808594084,0.0,1.0
1625450270.4375,0,0,0.0,0.0,1.0
1625450270.90625,0,0,20.405444197136777,0.0,1.0
1625450271.375,0,0,18.204234688645563,0.0,1.0
1625450271.84375,0,0,0.0,0.0,1.0
1625450272.3125,0,0,18.759813145235007,0.0,1.0
1625450272.78125,0,0,0.0,0.0,1.0
1625450273.25,0,0,0.0,0.0,1.0
1625450273.71875,0,0,16.51349045206719,0.0,1.0
1625450274.1875,0,0,0.0,0.0,1.0
1625450274.65625,0,0,14.298470432259812,0.0,1.0
1625450275.125,0,0,16.214581520231786,0.0,1.0
1625450275.59375,0,0,0.0,0.0,1.0
1625450276.0625,0,0,18.442763034520997,0.0,1.0
1625450276.53125,0,0,20.518043796317578,0.0,1.0
1625450277.0,0,0,0.0,0.0,1.0
1625450277.46875,0,0,22.481412789316458,0.0,1.0
1625450277.9375,0,0,0.0,0.0,1.0
1625450278.40625,0,0,0.0,0.0,1.0
1625450278.875,0,0,18.88810540550288,0.0,1.0
1625450279.34375,0,0,0.0,0.0,1.0
1625450279.8125,0,0,16.531847750369224,0.0,1.0
1625450280.28125,0,0,17.8018038583074,0.0,1.0
1625450280.75,0,0,0.0,0.0,1.0
1625450281.21875,0,0,20.95366138926679,0.0,1.0
1625450281.6875,0,0,20.006890786184144,0.0,1.0
1625450282.15625,0,0,0.0,0.0,1.0
1625450282.625,0,0,18.79850269693695,0.0,1.0
1625450283.09375,0,0,0.0,0.0,1.0
1625450283.5625,0,0,20.53920077721884,0.0,1.0
1625450284.03125,0,0,19.300813968943917,0.0,1.0
1625450284.5,0,0,0.0,0.0,1.0
1625450284.96875,0,0,16.75182919062089,0.0,1.0
1625450285.4375,0,0,0.0,0.0,1.0
1625450285.90625,0,0,0.0,0.0,1.0
1625450286.375,0,0,14.98945194611559,0.0,1.0
1625450286.84375,0,0,0.0,0.0,1.0
1625450287.3125,0,0,0.0,0.0,1.0
1625450287.78125,0,0,23.97211513240901,0.0,1.0
1625450288.25,0,0,0.0,0.0,1.0
1625450288.71875,0,0,0.0,0.0,1.0
1625450289.1875,0,0,24.472374009093006,0.0,1.0
1625450289.65625,0,0,0.0,0.0,1.0
1625450290.125,0,0,25.9733670327625,0.0,1.0
1625450290.59375,0,0,26.024002552735556,0.0,1.0
1625450291.0625,0,0,0.0,0.0,1.0
1625450291.53125,0,0,23.15204849516073,0.0,1.0
1625450292.0,0,0,0.0,0.0,1.0
1625450292.46875,0,0,21.650415057868155,0.0,1.0
1625450292.9375,0,0,0.0,0.0,1.0
1625450293.40625,0,0,20.35252050643158,0.0,1.0
1625450293.875,0,0,22.173684071244267,0.0,1.0
1625450294.34375,0,0,0.0,0.0,1.0
1625450294.8125,0,0,23.70359470317344,0.0,1.0
1625450295.28125,0,0,21.930510077632587,0.0,1.0
1625450295.75,0,0,0.0,0.0,1.0
1625450296.21875,0,0,21.697512764838816,0.0,1.0
1625450296.6875,0,0,0.0,0.0,1.0
1625450297.15625,0,0,0.0,0.0,1.0
1625450297.625,0,0,18.88444367182271,0.0,1.0
1625450298.09375,0,0,21.475600312577143,0.0,1.0
1625450298.5625,0,0,0.0,0.0,1.0
1625450299.03125,0,0,24.22091990336196,0.0,1.0
1625450299.5,0,0,0.0,0.0,1.0
1625450299.96875,0,0,0.0,0.0,1.0
1625450300.4375,0,0,25.837159126761932,0.0,1.0
1625450300.90625,0,0,0.0,0.0,1.0
1625450301.375,0,0,24.189835960994866,0.0,1.0
1625450301.84375,0,0,23.774167282882882,0.0,1.0
1625450302.3125,0,0,0.0,0.0,1.0
1625450302.78125,0,0,19.00004972901164,0.0,1.0
1625450303.25,0,0,19.466712928051255,0.0,1.0
1625450303.71875,0,0,0.0,0.0,1.0
1625450304.1875,0,0,21.93832262923085,0.0,1.0
1625450304.65625,0,0,25.6141233481316,0.0,1.0
1625450305.125,0,0,0.0,0.0,1.0
1625450305.59375,0,0,24.68116544257061,0.0,1.0
1625450306.0625,0,0,24.968245711803803,0.0,1.0
1625450306.53125,0,0,0.0,0.0,1.0
1625450307.0,0,0,25.335556912395056,0.0,1.0
1625450307.46875,0,0,0.0,0.0,1.0
1625450307.9375,0,0,23.321938939852195,0.0,1.0
1625450308.40625,0,0,21.928606403075737,0.0,1.0
1625450308.875,0,0,0.0,0.0,1.0
1625450309.34375,0,0,18.66089227178177,0.0,1.0
1625450309.8125,0,0,22.95709221177702,0.0,1.0
1625450310.28125,0,0,0.0,0.0,1.0
1625450310.75,0,0,23.600873677785593,0.0,1.0
1625450311.21875,0,0,23.526357428318473,0.0,1.0
1625450311.6875,0,0,0.0,0.0,1.0
1625450312.15625,0,0,23.02477598638363,0.0,1.0
1625450312.625,0,0,0.0,0.0,1.0
1625450313.09375,0,0,20.566068892721084,0.0,1.0
1625450313.5625,0,0,19.859617780954096,0.0,1.0
1625450314.03125,0,0,0.0,0.0,1.0
1625450314.5,0,0,17.01042267930068,0.0,1.0
1625450314.96875,0,0,19.17368987604679,0.0,1.0
1625450315.4375,0,0,0.0,0.0,1.0
1625450315.90625,0,0,21.8113556291589,0.0,1.0
1625450316.375,0,0,24.235992359203742,0.0,1.0
1625450316.84375,0,0,0.0,0.0,1.0
1625450317.3125,0,0,25.245128625956944,0.0,1.0
1625450317.78125,0,0,24.88751261155637,0.0,1.0
1625450318.25,0,0,0.0,0.0,1.0
1625450318.71875,0,0,23.215050139510613,0.0,1.0
1625450319.1875,0,0,20.9202625406327,0.0,1.0
1625450319.65625,0,0,0.0,0.0,1.0
1625450320.125,0,0,19.181455576287213,0.0,1.0
1625450320.59375,0,0,18.626161620675017,0.0,1.0
1625450321.0625,0,0,0.0,0.0,1.0
1625450321.53125,0,0,22.271485494651696,0.0,1.0
1625450322.0,0,0,0.0,0.0,1.0
1625450322.46875,0,0,23.31072349015368,0.0,1.0
1625450322.9375,0,0,35.90195896345982,0.0,1.0
1625450323.40625,0,0,0.0,0.0,1.0
1625450323.875,0,0,22.402400412439366,0.0,1.0
1625450324.34375,0,0,0.0,0.0,1.0
1625450324.8125,0,0,24.833125177285336,0.0,1.0
1625450325.28125,0,0,17.079531427598692,0.0,1.0
1625450325.75,0,0,0.0,0.0,1.0
1625450326.21875,0,0,17.838837308350993,0.0,1.0
1625450326.6875,0,0,14.246766351946318,0.0,1.0
1625450327.15625,0,0,0.0,0.0,1.0
1625450327.625,0,0,17.31951775231114,0.0,1.0
1625450328.09375,0,0,20.58709669814596,0.0,1.0
1625450328.5625,0,0,0.0,0.0,1.0
1625450329.03125,0,0,0.0,0.0,1.0
1625450329.5,0,0,24.170255781563185,0.0,1.0
1625450329.96875,0,0,0.0,0.0,1.0
1625450330.4375,0,0,22.263127149584978,0.0,1.0
1625450330.90625,0,0,21.253010677008866,0.0,1.0
1625450331.375,0,0,0.0,0.0,1.0
1625450331.84375,0,0,21.09578732181685,0.0,1.0
1625450332.3125,0,0,0.0,0.0,1.0
1625450332.78125,0,0,0.0,0.0,1.0
1625450333.25,0,0,24.982480436574665,0.0,1.0
1625450333.71875,0,0,0.0,0.0,1.0
1625450334.1875,0,0,23.682620166903416,0.0,1.0
1625450334.65625,0,0,0.0,0.0,1.0
1625450335.125,0,0,0.0,0.0,1.0
1625450335.59375,0,0,19.852819145407636,0.0,1.0
1625450336.0625,0,0,0.0,0.0,1.0
1625450336.53125,0,0,24.468885620917252,0.0,1.0
1625450337.0,0,0,23.554120850253675,0.0,1.0
1625450337.46875,0,0,0.0,0.0,1.0
1625450337.9375,0,0,30.095563435449154,0.0,1.0
1625450338.40625,0,0,0.0,0.0,1.0
1625450338.875,0,0,11.094773295803215,0.0,1.0
1625450339.34375,0,0,22.094547832754852,0.0,1.0
1625450339.8125,0,0,19.57554138727412,0.0,1.0
1625450340.28125,0,0,0.0,0.0,1.0
1625450340.75,0,0,23.41600948220632,0.0,1.0
1625450341.21875,0,0,21.236094068479677,0.0,1.0
1625450341.6875,0,0,0.0,0.0,1.0
1625450342.15625,0,0,25.615501160086854,0.0,1.0
1625450342.625,0,0,28.986136580434195,0.0,1.0
1625450343.09375,0,0,0.0,0.0,1.0
1625450343.5625,0,0,28.2001045519119,0.0,1.0
1625450344.03125,0,0,0.0,0.0,1.0
1625450344.5,0,0,24.343375344796538,0.0,1.0
1625450344.96875,0,0,2.1549913935254703,0.0,1.0
1625450345.4375,0,0,6.860505607896725,0.0,1.0
1625450345.90625,0,0,24.4432926849456,0.0,1.0
1625450346.375,0,0,0.0,0.0,1.0
1625450346.84375,0,0,18.52428356872143,0.0,1.0
1625450347.3125,0,0,0.0,0.0,1.0
1625450347.78125,0,0,22.400637836029567,0.0,1.0
1625450348.25,0,0,18.986381401236216,0.0,1.0
1625450348.71875,0,0,0.0,0.0,1.0
1625450349.1875,0,0,19.639327932980958,0.0,1.0
1625450349.65625,0,0,0.0,0.0,1.0
1625450350.125,0,0,23.824500035547832,0.0,1.0
1625450350.59375,0,0,20.921958471525578,0.0,1.0
1625450351.0625,0,0,0.0,0.0,1.0
1625450351.53125,0,0,26.181623690055037,0.0,1.0
1625450352.0,0,0,30.63258096434037,0.0,1.0
1625450352.46875,0,0,0.0,0.0,1.0
1625450352.9375,0,0,34.25740992122571,0.0,1.0
1625450353.40625,0,0,0.0,0.0,1.0
1625450353.875,0,0,38.19810576116689,0.0,1.0
1625450354.34375,0,0,0.0,0.0,1.0
1625450354.8125,0,0,30.75067378609433,0.0,1.0
1625450355.28125,0,0,0.0,0.0,1.0
1625450355.75,0,0,23.974037531040587,0.0,1.0
1625450356.21875,0,0,0.0,0.0,1.0
1625450356.6875,0,0,19.705205298682355,0.0,1.0
1625450357.15625,0,0,18.00541570844826,0.0,1.0
1625450357.625,0,0,0.0,0.0,1.0
1625450358.09375,0,0,18.35444696236206,0.0,1.0
1625450358.5625,0,0,0.0,0.0,1.0
1625450359.03125,0,0,18.96404221856337,0.0,1.0
1625450359.5,0,0,0.0,0.0,1.0
1625450359.96875,0,0,19.294907916104574,0.0,1.0
1625450360.4375,0,0,18.40803764103483,0.0,1.0
1625450360.90625,0,0,0.0,0.0,1.0
1625450361.375,0,0,20.433782558859345,0.0,1.0
1625450361.84375,0,0,19.334812495658397,0.0,1.0
1625450362.3125,0,0,0.0,0.0,1.0
1625450362.78125,0,0,19.36667279856191,0.0,1.0
1625450363.25,0,0,0.0,0.0,1.0
1625450363.71875,0,0,20.30824468365691,0.0,1.0
1625450364.1875,0,0,19.18728929979758,0.0,1.0
1625450364.65625,0,0,0.0,0.0,1.0
1625450365.125,0,0,19.800951167097434,0.0,1.0
1625450365.59375,0,0,0.0,0.0,1.0
1625450366.0625,0,0,19.826602130284627,0.0,1.0
1625450366.53125,0,0,18.07428540413004,0.0,1.0
1625450367.0,0,0,0.0,0.0,1.0
1625450367.46875,0,0,18.57563444327523,0.0,1.0
1625450367.9375,0,0,19.263332363111154,0.0,1.0
1625450368.40625,0,0,0.0,0.0,1.0
1625450368.875,0,0,24.54530411219679,0.0,1.0
1625450369.34375,0,0,24.71337403751356,0.0,1.0
1625450369.8125,0,0,0.0,0.0,1.0
1625450370.28125,0,0,23.754316787420194,0.0,1.0
1625450370.75,0,0,0.0,0.0,1.0
1625450371.21875,0,0,22.425649528616066,0.0,1.0
1625450371.6875,0,0,18.877656943959252,0.0,1.0
1625450372.15625,0,0,0.0,0.0,1.0
1625450372.625,0,0,23.014064515606027,0.0,1.0
1625450373.09375,0,0,24.465646392915446,0.0,1.0
1625450373.5625,0,0,0.0,0.0,1.0
1625450374.03125,0,0,24.288351756302223,0.0,1.0
1625450374.5,0,0,0.0,0.0,1.0
1625450374.96875,0,0,22.834565083310945,0.0,1.0
1625450375.4375,0,0,19.86324283920651,0.0,1.0
1625450375.90625,0,0,0.0,0.0,1.0
1625450376.375,0,0,19.00928917309714,0.0,1.0
1625450376.84375,0,0,22.862884296360455,0.0,1.0
1625450377.3125,0,0,0.0,0.0,1.0
1625450377.78125,0,0,24.819744575520275,0.0,1.0
1625450378.25,0,0,21.92764539342275,0.0,1.0
1625450378.71875,0,0,0.0,0.0,1.0
1625450379.1875,0,0,21.65190178939499,0.0,1.0
1625450379.65625,0,0,0.0,0.0,1.0
1625450380.125,0,0,0.0,0.0,1.0
1625450380.59375,0,0,18.093844362738807,0.0,1.0
1625450381.0625,0,0,0.0,0.0,1.0
1625450381.53125,0,0,19.40569304522544,0.0,1.0
1625450382.0,0,0,24.516311233208256,0.0,1.0
1625450382.46875,0,0,0.0,0.0,1.0
1625450382.9375,0,0,24.748046326697214,0.0,1.0
1625450383.40625,0,0,23.431996181166543,0.0,1.0
1625450383.875,0,0,0.0,0.0,1.0
1625450384.34375,0,0,31.113132192581094,0.0,1.0
1625450384.8125,0,0,0.0,0.0,1.0
1625450385.28125,0,0,24.94855360367127,0.0,1.0
1625450385.75,0,0,19.064509111493678,0.0,1.0
1625450386.21875,0,0,0.0,0.0,1.0
1625450386.6875,0,0,20.202789678167417,0.0,1.0
1625450387.15625,0,0,24.540625183202796,0.0,1.0
1625450387.625,0,0,0.0,0.0,1.0
1625450388.09375,0,0,24.603151878944125,0.0,1.0
1625450388.5625,0,0,23.948625481584163,0.0,1.0
1625450389.03125,0,0,0.0,0.0,1.0
1625450389.5,0,0,24.188922645879064,0.0,1.0
1625450389.96875,0,0,0.0,0.0,1.0
1625450390.4375,0,0,23.123957961390346,0.0,1.0
1625450390.90625,0,0,23.331249976605168,0.0,1.0
1625450391.375,0,0,0.0,0.0,1.0
1625450391.84375,0,0,20.933606575327783,0.0,1.0
1625450392.3125,0,0,20.26366571596847,0.0,1.0
1625450392.78125,0,0,0.0,0.0,1.0
1625450393.25,0,0,23.899485091500715,0.0,1.0
1625450393.71875,0,0,27.00672548725822,0.0,1.0
1625450394.1875,0,0,0.0,0.0,1.0
1625450394.65625,0,0,25.403547307585413,0.0,1.0
1625450395.125,0,0,0.0,0.0,1.0
1625450395.59375,0,0,27.136051916325183,0.0,1.0
1625450396.0625,0,0,27.30497031846187,0.0,1.0
1625450396.53125,0,0,0.0,0.0,1.0
1625450397.0,0,0,24.314222695582764,0.0,1.0
1625450397.46875,0,0,19.02000503452504,0.0,1.0
1625450397.9375,0,0,0.0,0.0,1.0
1625450398.40625,0,0,23.397295645093315,0.0,1.0
1625450398.875,0,0,0.0,0.0,1.0
1625450399.34375,0,0,0.0,0.0,1.0
1625450399.8125,0,0,25.89700002858331,0.0,1.0
1625450400.28125,0,0,0.0,0.0,1.0
1625450400.75,0,0,24.983985651722133,0.0,1.0
1625450401.21875,0,0,25.671349966462188,0.0,1.0
1625450401.6875,0,0,0.0,0.0,1.0
1625450402.15625,0,0,23.729668651396857,0.0,1.0
1625450402.625,0,0,20.059411052520275,0.0,1.0
1625450403.09375,0,0,0.0,0.0,1.0
1625450403.5625,0,0,26.90525364697227,0.0,1.0
1625450404.03125,0,0,0.0,0.0,1.0
1625450404.5,0,0,0.0,0.0,1.0
1625450404.96875,0,0,27.696130342262236,0.0,1.0
1625450405.4375,0,0,0.0,0.0,1.0
1625450405.90625,0,0,27.947134964905953,0.0,1.0
1625450406.375,0,0,24.138659368383436,0.0,1.0
1625450406.84375,0,0,0.0,0.0,1.0
1625450407.3125,0,0,23.032410174595636,0.0,1.0
1625450407.78125,0,0,0.0,0.0,1.0
1625450408.25,0,0,24.8040271134905,0.0,1.0
1625450408.71875,0,0,21.933352573387115,0.0,1.0
1625450409.1875,0,0,0.0,0.0,1.0
1625450409.65625,0,0,26.57768232092094,0.0,1.0
1625450410.125,0,0,27.318707319272807,0.0,1.0
1625450410.59375,0,0,0.0,0.0,1.0
1625450411.0625,0,0,28.898843437550997,0.0,1.0
1625450411.53125,0,0,34.65848687458585,0.0,1.0
1625450412.0,0,0,0.0,0.0,1.0
1625450412.46875,0,0,32.395949968426116,0.0,1.0
1625450412.9375,0,0,0.0,0.0,1.0
1625450413.40625,0,0,25.662787885853575,0.0,1.0
1625450413.875,0,0,25.01780323653461,0.0,1.0
1625450414.34375,0,0,0.0,0.0,1.0
1625450414.8125,0,0,25.21518638369149,0.0,1.0
1625450415.28125,0,0,26.24393963700069,0.0,1.0
1625450415.75,0,0,0.0,0.0,1.0
1625450416.21875,0,0,22.821841828973003,0.0,1.0
1625450416.6875,0,0,0.0,0.0,1.0
1625450417.15625,0,0,23.10882977227515,0.0,1.0
1625450417.625,0,0,22.19453664261784,0.0,1.0
1625450418.09375,0,0,0.0,0.0,1.0
1625450418.5625,0,0,21.76890004055982,0.0,1.0
1625450419.03125,0,0,20.821282537367622,0.0,1.0
1625450419.5,0,0,0.0,0.0,1.0
1625450419.96875,0,0,23.675503578978784,0.0,1.0
1625450420.4375,0,0,26.262292472237284,0.0,1.0
1625450420.90625,0,0,0.0,0.0,1.0
1625450421.375,0,0,27.377966508535934,0.0,1.0
1625450421.84375,0,0,26.328265034878154,0.0,1.0
1625450422.3125,0,0,0.0,0.0,1.0
1625450422.78125,0,0,29.64789856572436,0.0,1.0
1625450423.25,0,0,0.0,0.0,1.0
1625450423.71875,0,0,29.221717190012207,0.0,1.0
1625450424.1875,0,0,25.939017355489263,0.0,1.0
1625450424.65625,0,0,0.0,0.0,1.0
1625450425.125,0,0,25.04421809765426,0.0,1.0
1625450425.59375,0,0,20.271805030918934,0.0,1.0
1625450426.0625,0,0,0.0,0.0,1.0
1625450426.53125,0,0,28.73316083200226,0.0,1.0
1625450427.0,0,0,0.0,0.0,1.0
1625450427.46875,0,0,29.482723541708545,0.0,1.0
1625450427.9375,0,0,28.641969864339426,0.0,1.0
1625450428.40625,0,0,0.0,0.0,1.0
1625450428.875,0,0,31.66282354905991,0.0,1.0
1625450429.34375,0,0,0.0,0.0,1.0
1625450429.8125,0,0,0.0,0.0,1.0
1625450430.28125,0,0,26.496396019180537,0.0,1.0
1625450430.75,0,0,0.0,0.0,1.0
1625450431.21875,0,0,22.74027716080095,0.0,1.0
1625450431.6875,0,0,23.971711878293085,0.0,1.0
1625450432.15625,0,0,0.0,0.0,1.0
1625450432.625,0,0,30.871879754528198,0.0,1.0
1625450433.09375,0,0,29.710590279294475,0.0,1.0
1625450433.5625,0,0,0.0,0.0,1.0
1625450434.03125,0,0,29.13831709260785,0.0,1.0
1625450434.5,0,0,0.0,0.0,1.0
1625450434.96875,0,0,29.10978186066324,0.0,1.0
1625450435.4375,0,0,27.135145451948105,0.0,1.0
1625450435.90625,0,0,0.0,0.0,1.0
1625450436.375,0,0,22.43381774285901,0.0,1.0
1625450436.84375,0,0,0.0,0.0,1.0
1625450437.3125,0,0,25.592584883200743,0.0,1.0
1625450437.78125,0,0,27.78685289450656,0.0,1.0
1625450438.25,0,0,0.0,0.0,1.0
1625450438.71875,0,0,25.334444244420556,0.0,1.0
1625450439.1875,0,0,0.0,0.0,1.0
1625450439.65625,0,0,0.0,0.0,1.0
1625450440.125,0,0,23.826894345385703,0.0,1.0
1625450440.59375,0,0,0.0,0.0,1.0
1625450441.0625,0,0,21.670603532899364,0.0,1.0
1625450441.53125,0,0,22.7338196705909,0.0,1.0
1625450442.0,0,0,0.0,0.0,1.0
1625450442.46875,0,0,25.792496533523583,0.0,1.0
1625450442.9375,0,0,29.14923482124605,0.0,1.0
1625450443.40625,0,0,0.0,0.0,1.0
1625450443.875,0,0,30.296660138286214,0.0,1.0
1625450444.34375,0,0,0.0,0.0,1.0
1625450444.8125,0,0,29.412962931358344,0.0,1.0
1625450445.28125,0,0,28.93322224582437,0.0,1.0
1625450445.75,0,0,0.0,0.0,1.0
1625450446.21875,0,0,25.50683381381957,0.0,1.0
1625450446.6875,0,0,0.0,0.0,1.0
1625450447.15625,0,0,22.26508181133464,0.0,1.0
1625450447.625,0,0,23.214549553781517,0.0,1.0
1625450448.09375,0,0,0.0,0.0,1.0
1625450448.5625,0,0,27.10743349557564,0.0,1.0
1625450449.03125,0,0,27.288068186743967,0.0,1.0
1625450449.5,0,0,0.0,0.0,1.0
1625450449.96875,0,0,24.473443897669643,0.0,1.0
1625450450.4375,0,0,0.0,0.0,1.0
1625450450.90625,0,0,23.823881447611235,0.0,1.0
1625450451.375,0,0,21.298727566127805,0.0,1.0
1625450451.84375,0,0,0.0,0.0,1.0
1625450452.3125,0,0,25.09474214253911,0.0,1.0
1625450452.78125,0,0,28.778431941513702,0.0,1.0
1625450453.25,0,0,0.0,0.0,1.0
1625450453.71875,0,0,26.311231536696884,0.0,1.0
1625450454.1875,0,0,0.0,0.0,1.0
1625450454.65625,0,0,27.366109790821096,0.0,1.0
1625450455.125,0,0,25.265118952459193,0.0,1.0
1625450455.59375,0,0,0.0,0.0,1.0
1625450456.0625,0,0,21.384640437458952,0.0,1.0
1625450456.53125,0,0,22.208647616163926,0.0,1.0
1625450457.0,0,0,0.0,0.0,1.0
1625450457.46875,0,0,27.61326081011645,0.0,1.0
1625450457.9375,0,0,0.0,0.0,1.0
1625450458.40625,0,0,0.0,0.0,1.0
1625450458.875,0,0,26.19693785423412,0.0,1.0
1625450459.34375,0,0,0.0,0.0,1.0
1625450459.8125,0,0,24.083581855010515,0.0,1.0
1625450460.28125,0,0,22.343392031321187,0.0,1.0
1625450460.75,0,0,0.0,0.0,1.0
1625450461.21875,0,0,27.270646465170028,0.0,1.0
1625450461.6875,0,0,30.286099230322467,0.0,1.0
1625450462.15625,0,0,0.0,0.0,1.0
1625450462.625,0,0,27.68610848867941,0.0,1.0
1625450463.09375,0,0,28.88531865352301,0.0,1.0
1625450463.5625,0,0,0.0,0.0,1.0
1625450464.03125,0,0,29.087720265638545,0.0,1.0
1625450464.5,0,0,0.0,0.0,1.0
1625450464.96875,0,0,23.410685127084072,0.0,1.0
1625450465.4375,0,0,22.251494160422904,0.0,1.0
1625450465.90625,0,0,0.0,0.0,1.0
1625450466.375,0,0,26.124394071811782,0.0,1.0
1625450466.84375,0,0,0.0,0.0,1.0
1625450467.3125,0,0,30.33164504795663,0.0,1.0
1625450467.78125,0,0,26.46353395111452,0.0,1.0
1625450468.25,0,0,0.0,0.0,1.0
1625450468.71875,0,0,25.730728864928892,0.0,1.0
1625450469.1875,0,0,23.101668353905186,0.0,1.0
1625450469.65625,0,0,0.0,0.0,1.0
1625450470.125,0,0,19.990456371115794,0.0,1.0
1625450470.59375,0,0,0.0,0.0,1.0
1625450471.0625,0,0,19.261513312662984,0.0,1.0
1625450471.53125,0,0,23.9406454341921,0.0,1.0
1625450472.0,0,0,31.56771777017048,0.0,1.0
1625450472.46875,0,0,0.0,0.0,1.0
1625450472.9375,0,0,24.110041356707413,0.0,1.0
1625450473.40625,0,0,35.25523320760401,0.0,1.0
1625450473.875,0,0,0.0,0.0,1.0
1625450474.34375,0,0,25.905222483044636,0.0,1.0
1625450474.8125,0,0,0.0,0.0,1.0
1625450475.28125,0,0,21.31452883244185,0.0,1.0
1625450475.75,0,0,18.10027002156981,0.0,1.0
1625450476.21875,0,0,21.09929207452372,0.0,1.0
1625450476.6875,0,0,0.0,0.0,1.0
1625450477.15625,0,0,25.330591693008127,0.0,1.0
1625450477.625,0,0,0.0,0.0,1.0
1625450478.09375,0,0,0.0,0.0,1.0
1625450478.5625,0,0,31.48503286818434,0.0,1.0
1625450479.03125,0,0,0.0,0.0,1.0
1625450479.5,0,0,23.8140012469815,0.0,1.0
1625450479.96875,0,0,0.0,0.0,1.0
1625450480.4375,0,0,20.238983227496735,0.0,1.0
1625450480.90625,0,0,15.989107748277123,0.0,1.0
1625450481.375,0,0,0.0,0.0,1.0
1625450481.84375,0,0,10.638332023152895,0.0,1.0
1625450482.3125,0,0,0.0,0.0,1.0
1625450482.78125,0,0,12.740160343708489,0.0,1.0
1625450483.25,0,0,11.231752718130302,0.0,1.0
1625450483.71875,0,0,0.0,0.0,1.0
1625450484.1875,0,0,13.36535411845956,0.0,1.0
1625450484.65625,0,0,0.0,0.0,1.0
1625450485.125,0,0,14.860188283682225,0.0,1.0
1625450485.59375,0,0,15.024055178775026,0.0,1.0
1625450486.0625,0,0,0.0,0.0,1.0
1625450486.53125,0,0,18.89793999752323,0.0,1.0
1625450487.0,0,0,20.64715625919133,0.0,1.0
1625450487.46875,0,0,0.0,0.0,1.0
1625450487.9375,0,0,24.711136835322087,0.0,1.0
1625450488.40625,0,0,22.63114342081818,0.0,1.0
1625450488.875,0,0,0.0,0.0,1.0
1625450489.34375,0,0,27.08273006790642,0.0,1.0
1625450489.8125,0,0,0.0,0.0,1.0
1625450490.28125,0,0,26.39989719798266,0.0,1.0
1625450490.75,0,0,0.0,0.0,1.0
1625450491.21875,0,0,0.0,0.0,1.0
1625450491.6875,0,0,19.195000240705024,0.0,1.0
1625450492.15625,0,0,0.0,0.0,1.0
1625450492.625,0,0,22.616330631786198,0.0,1.0
1625450493.09375,0,0,25.843375821077633,0.0,1.0
1625450493.5625,0,0,0.0,0.0,1.0
1625450494.03125,0,0,23.910942063761123,0.0,1.0
1625450494.5,0,0,0.0,0.0,1.0
1625450494.96875,0,0,0.0,0.0,1.0
1625450495.4375,0,0,24.011252732277804,0.0,1.0
1625450495.90625,0,0,0.0,0.0,1.0
1625450496.375,0,0,23.31021061763383,0.0,1.0
1625450496.84375,0,0,30.14260826161449,0.0,1.0
1625450497.3125,0,0,0.0,0.0,1.0
1625450497.78125,0,0,34.82348986615359,0.0,1.0
1625450498.25,0,0,0.0,0.0,1.0
1625450498.71875,0,0,0.0,0.0,1.0
1625450499.1875,0,0,30.817791508513725,0.0,1.0
1625450499.65625,0,0,0.0,0.0,1.0
1625450500.125,0,0,28.212456440949403,0.0,1.0
1625450500.59375,0,0,0.0,0.0,1.0
1625450501.0625,0,0,0.0,0.0,1.0
1625450501.53125,0,0,33.54891084670961,0.0,1.0
1625450502.0,0,0,0.0,0.0,1.0
1625450502.46875,0,0,30.462680537773366,0.0,1.0
1625450502.9375,0,0,0.0,0.0,1.0
1625450503.40625,0,0,30.37019966615671,0.0,1.0
1625450503.875,0,0,24.45621618382236,0.0,1.0
1625450504.34375,0,0,0.0,0.0,1.0
1625450504.8125,0,0,25.015067422574432,0.0,1.0
1625450505.28125,0,0,30.626437609214364,0.0,1.0
1625450505.75,0,0,0.0,0.0,1.0
1625450506.21875,0,0,33.00046049173165,0.0,1.0
1625450506.6875,0,0,32.52889092713903,0.0,1.0
1625450507.15625,0,0,0.0,0.0,1.0
1625450507.625,0,0,33.22776550816752,0.0,1.0
1625450508.09375,0,0,0.0,0.0,1.0
1625450508.5625,0,0,33.94967358050268,0.0,1.0
1625450509.03125,0,0,27.960834932242502,0.0,1.0
1625450509.5,0,0,0.0,0.0,1.0
1625450509.96875,0,0,25.347855077362006,0.0,1.0
1625450510.4375,0,0,0.0,0.0,1.0
1625450510.90625,0,0,0.0,0.0,1.0
1625450511.375,0,0,32.71708317666568,0.0,1.0
1625450511.84375,0,0,0.0,0.0,1.0
1625450512.3125,0,0,32.78523167599869,0.0,1.0
1625450512.78125,0,0,31.536349086733264,0.0,1.0
1625450513.25,0,0,0.0,0.0,1.0
1625450513.71875,0,0,29.673743320439243,0.0,1.0
1625450514.1875,0,0,0.0,0.0,1.0
1625450514.65625,0,0,26.307411075407167,0.0,1.0
1625450515.125,0,0,32.485552024750916,0.0,1.0
1625450515.59375,0,0,0.0,0.0,1.0
1625450516.0625,0,0,42.332738229087184,0.0,1.0
1625450516.53125,0,0,6.619568429863905,0.0,1.0
1625450517.0,0,0,0.0,0.0,1.0
1625450517.46875,0,0,0.0,0.0,1.0
1625450517.9375,0,0,0.0,0.0,1.0
1625450518.40625,0,0,-147.7554520013965,0.0,1.0
1625450518.875,0,0,140.78210498440964,0.0,1.0
1625450519.34375,0,0,102.60593255967477,0.0,1.0
1625450519.8125,0,0,-18.653508997623064,0.0,1.0
1625450520.28125,0,0,57.351222329715455,0.0,1.0
1625450520.75,0,0,0.0,0.0,1.0
1625450521.21875,0,0,45.387696655825906,0.0,1.0
1625450521.6875,0,0,0.0,0.0,1.0
1625450522.15625,0,0,70.89577123969234,0.0,1.0
1625450522.625,0,0,-18.0941378834756,0.0,1.0
1625450523.09375,0,0,29.83332283082765,0.0,1.0
1625450523.5625,0,0,0.0,0.0,1.0
1625450524.03125,0,0,19.189139767563,0.0,1.0
1625450524.5,0,0,19.32409567081565,0.0,1.0
1625450524.96875,0,0,0.0,0.0,1.0
1625450525.4375,0,0,23.4457020893039,0.0,1.0
1625450525.90625,0,0,0.0,0.0,1.0
1625450526.375,0,0,22.87848382999899,0.0,1.0
1625450526.84375,0,0,21.342324872845666,0.0,1.0
1625450527.3125,0,0,0.0,0.0,1.0
1625450527.78125,0,0,22.09069989991967,0.0,1.0
1625450528.25,0,0,8.792458247825142,0.0,1.0
1625450528.71875,0,0,53.16217817478073,0.0,1.0
1625450529.1875,0,0,81.6768345297657,0.0,1.0
1625450529.65625,0,0,0.0,0.0,1.0
1625450530.125,0,0,95.72621863710084,0.0,1.0
1625450530.59375,0,0,48.22445742861913,0.0,1.0
1625450531.0625,0,0,0.0,0.0,1.0
1625450531.53125,0,0,45.253977686920116,0.0,1.0
1625450532.0,0,0,14.388358298678666,0.0,1.0
1625450532.46875,0,0,23.150852992785595,0.0,1.0
1625450532.9375,0,0,18.227934268210394,0.0,1.0
1625450533.40625,0,0,0.0,0.0,1.0
1625450533.875,0,0,25.42722709764554,0.0,1.0
1625450534.34375,0,0,17.501328167218887,0.0,1.0
1625450534.8125,0,0,0.0,0.0,1.0
1625450535.28125,0,0,23.349403791484928,0.0,1.0
1625450535.75,0,0,25.196283540635527,0.0,1.0
1625450536.21875,0,0,0.0,0.0,1.0
1625450536.6875,0,0,25.857665973241776,0.0,1.0
1625450537.15625,0,0,0.0,0.0,1.0
1625450537.625,0,0,24.84066868834001,0.0,1.0
1625450538.09375,0,0,23.540450874673002,0.0,1.0
1625450538.5625,0,0,0.0,0.0,1.0
1625450539.03125,0,0,22.79960400067227,0.0,1.0
1625450539.5,0,0,0.0,0.0,1.0
1625450539.96875,0,0,20.977340580636838,0.0,1.0
1625450540.4375,0,0,21.28337096968244,0.0,1.0
1625450540.90625,0,0,0.0,0.0,1.0
1625450541.375,0,0,24.85346457727304,0.0,1.0
1625450541.84375,0,0,25.957834157237436,0.0,1.0
1625450542.3125,0,0,0.0,0.0,1.0
1625450542.78125,0,0,26.033691097959423,0.0,1.0
1625450543.25,0,0,0.0,0.0,1.0
1625450543.71875,0,0,21.53474542249999,0.0,1.0
1625450544.1875,0,0,19.664933192649258,0.0,1.0
1625450544.65625,0,0,0.0,0.0,1.0
1625450545.125,0,0,20.23129970393038,0.0,1.0
1625450545.59375,0,0,20.278002860438498,0.0,1.0
1625450546.0625,0,0,0.0,0.0,1.0
1625450546.53125,0,0,8.846775062540429,0.0,1.0
1625450547.0,0,0,0.0,0.0,1.0
1625450547.46875,0,0,92.4162654258282,0.0,1.0
1625450547.9375,0,0,157.13069070503184,0.0,1.0
1625450548.40625,0,0,114.88125191934247,0.0,1.0
1625450548.875,0,0,94.16242863483517,0.0,1.0
1625450549.34375,0,0,34.0610451625432,0.0,1.0
1625450549.8125,0,0,0.0,0.0,1.0
1625450550.28125,0,0,26.54340042515011,0.0,1.0
1625450550.75,0,0,0.0,0.0,1.0
1625450551.21875,0,0,15.827513482792922,0.0,1.0
1625450551.6875,0,0,24.030170348117867,0.0,1.0
1625450552.15625,0,0,0.0,0.0,1.0
1625450552.625,0,0,24.16661475971539,0.0,1.0
1625450553.09375,0,0,0.0,0.0,1.0
1625450553.5625,0,0,23.42195456858971,0.0,1.0
1625450554.03125,0,0,0.0,0.0,1.0
1625450554.5,0,0,23.65989950860198,0.0,1.0
1625450554.96875,0,0,0.0,0.0,1.0
1625450555.4375,0,0,17.61515206715153,0.0,1.0
1625450555.90625,0,0,18.856284619703445,0.0,1.0
1625450556.375,0,0,0.0,0.0,1.0
1625450556.84375,0,0,18.75133304817355,0.0,1.0
1625450557.3125,0,0,0.0,0.0,1.0
1625450557.78125,0,0,0.0,0.0,1.0
1625450558.25,0,0,24.082807471361853,0.0,1.0
1625450558.71875,0,0,0.0,0.0,1.0
1625450559.1875,0,0,22.795258751825994,0.0,1.0
1625450559.65625,0,0,23.29732005070915,0.0,1.0
1625450560.125,0,0,0.0,0.0,1.0
1625450560.59375,0,0,27.98871413145817,0.0,1.0
1625450561.0625,0,0,0.0,0.0,1.0
1625450561.53125,0,0,24.712797711377878,0.0,1.0
1625450562.0,0,0,23.72381475579821,0.0,1.0
1625450562.46875,0,0,0.0,0.0,1.0
1625450562.9375,0,0,23.597983623779136,0.0,1.0
1625450563.40625,0,0,0.0,0.0,1.0
1625450563.875,0,0,0.0,0.0,1.0
1625450564.34375,0,0,27.90854311599343,0.0,1.0
1625450564.8125,0,0,0.0,0.0,1.0
1625450565.28125,0,0,23.18607565024666,0.0,1.0
1625450565.75,0,0,0.0,0.0,1.0
1625450566.21875,0,0,17.3981705937576,0.0,1.0
1625450566.6875,0,0,19.442333935989836,0.0,1.0
1625450567.15625,0,0,0.0,0.0,1.0
1625450567.625,0,0,23.33019530424754,0.0,1.0
1625450568.09375,0,0,0.0,0.0,1.0
1625450568.5625,0,0,0.0,0.0,1.0
1625450569.03125,0,0,23.417420595427714,0.0,1.0
1625450569.5,0,0,0.0,0.0,1.0
1625450569.96875,0,0,23.084930895277694,0.0,1.0
1625450570.4375,0,0,18.43883822662192,0.0,1.0
1625450570.90625,0,0,0.0,0.0,1.0
1625450571.375,0,0,19.767620674710003,0.0,1.0
1625450571.84375,0,0,21.04239204526163,0.0,1.0
1625450572.3125,0,0,0.0,0.0,1.0
1625450572.78125,0,0,23.140501665938253,0.0,1.0
1625450573.25,0,0,0.0,0.0,1.0
1625450573.71875,0,0,23.478871969880924,0.0,1.0
1625450574.1875,0,0,24.651066724812786,0.0,1.0
1625450574.65625,0,0,0.0,0.0,1.0
1625450575.125,0,0,25.514849351146463,0.0,1.0
1625450575.59375,0,0,18.235960542126662,0.0,1.0
1625450576.0625,0,0,0.0,0.0,1.0
1625450576.53125,0,0,18.077588615036696,0.0,1.0
1625450577.0,0,0,21.9496318554692,0.0,1.0
1625450577.46875,0,0,0.0,0.0,1.0
1625450577.9375,0,0,31.02563989374195,0.0,1.0
1625450578.40625,0,0,0.0,0.0,1.0
1625450578.875,0,0,3.066094407721057,0.0,1.0
1625450579.34375,0,0,134.65726233447575,0.0,1.0
1625450579.8125,0,0,0.0,0.0,1.0
1625450580.28125,0,0,39.83224885888038,0.0,1.0
1625450580.75,0,0,15.523517246658965,0.0,1.0
1625450581.21875,0,0,12.439587631880247,0.0,1.0
1625450581.6875,0,0,16.327110399359416,0.0,1.0
1625450582.15625,0,0,0.0,0.0,1.0
1625450582.625,0,0,26.834376556331094,0.0,1.0
1625450583.09375,0,0,21.415170356737686,0.0,1.0
1625450583.5625,0,0,0.0,0.0,1.0
1625450584.03125,0,0,21.989900931307393,0.0,1.0
1625450584.5,0,0,0.0,0.0,1.0
1625450584.96875,0,0,0.0,0.0,1.0
1625450585.4375,0,0,14.882994313336809,0.0,1.0
1625450585.90625,0,0,0.0,0.0,1.0
1625450586.375,0,0,24.223627457892597,0.0,1.0
1625450586.84375,0,0,23.403722604703763,0.0,1.0
1625450587.3125,0,0,0.0,0.0,1.0
1625450587.78125,0,0,21.686945622440167,0.0,1.0
1625450588.25,0,0,0.0,0.0,1.0
1625450588.71875,0,0,0.0,0.0,1.0
1625450589.1875,0,0,6.66036038887573,0.0,1.0
1625450589.65625,0,0,0.0,0.0,1.0
1625450590.125,0,0,0.0,0.0,1.0
1625450590.59375,0,0,353.65780594387587,0.0,1.0
1625450591.0625,0,0,0.0,0.0,1.0
1625450591.53125,0,0,335.86430028166995,0.0,1.0
1625450592.0,0,0,0.0,0.0,1.0
1625450592.46875,0,0,188.26813638202515,0.0,1.0
1625450592.9375,0,0,0.0,0.0,1.0
1625450593.40625,0,0,73.8728917576097,0.0,1.0
1625450593.875,0,0,0.0,0.0,1.0
1625450594.34375,0,0,16.546287419881313,0.0,1.0
1625450594.8125,0,0,21.094571551712153,0.0,1.0
1625450595.28125,0,0,0.0,0.0,1.0
1625450595.75,0,0,0.0,0.0,1.0
1625450596.21875,0,0,32.73810203741816,0.0,1.0
1625450596.6875,0,0,0.0,0.0,1.0
1625450597.15625,0,0,34.08486789328702,0.0,1.0
1625450597.625,0,0,29.69663998088601,0.0,1.0
1625450598.09375,0,0,0.0,0.0,1.0
1625450598.5625,0,0,22.543017045405342,0.0,1.0
1625450599.03125,0,0,0.0,0.0,1.0
1625450599.5,0,0,16.738686421318405,0.0,1.0
1625450599.96875,0,0,0.0,0.0,1.0
1625450600.4375,0,0,14.595355759596128,0.0,1.0
1625450600.90625,0,0,0.0,0.0,1.0
1625450601.375,0,0,0.0,0.0,1.0
1625450601.84375,0,0,16.028557488437322,0.0,1.0
1625450602.3125,0,0,0.0,0.0,1.0
1625450602.78125,0,0,17.319693642416013,0.0,1.0
1625450603.25,0,0,0.0,0.0,1.0
1625450603.71875,0,0,20.600221545771518,0.0,1.0
1625450604.1875,0,0,19.621458699660216,0.0,1.0
1625450604.65625,0,0,0.0,0.0,1.0
1625450605.125,0,0,21.22036974375393,0.0,1.0
1625450605.59375,0,0,0.0,0.0,1.0
1625450606.0625,0,0,19.858084179277323,0.0,1.0
1625450606.53125,0,0,21.22276987998012,0.0,1.0
1625450607.0,0,0,0.0,0.0,1.0
1625450607.46875,0,0,21.97819437785562,0.0,1.0
1625450607.9375,0,0,0.0,0.0,1.0
1625450608.40625,0,0,21.609439708104972,0.0,1.0
1625450608.875,0,0,21.230224922715404,0.0,1.0
1625450609.34375,0,0,0.0,0.0,1.0
1625450609.8125,0,0,21.524576712126652,0.0,1.0
1625450610.28125,0,0,0.0,0.0,1.0
1625450610.75,0,0,21.968654378813774,0.0,1.0
1625450611.21875,0,0,0.0,0.0,1.0
1625450611.6875,0,0,0.0,0.0,1.0
1625450612.15625,0,0,20.15129970278431,0.0,1.0
1625450612.625,0,0,0.0,0.0,1.0
1625450613.09375,0,0,17.878732768516482,0.0,1.0
1625450613.5625,0,0,0.0,0.0,1.0
1625450614.03125,0,0,0.0,0.0,1.0
1625450614.5,0,0,19.266153518917307,0.0,1.0
1625450614.96875,0,0,0.0,0.0,1.0
1625450615.4375,0,0,25.813947100956387,0.0,1.0
1625450615.90625,0,0,27.4074894492399,0.0,1.0
1625450616.375,0,0,0.0,0.0,1.0
1625450616.84375,0,0,27.33222919347468,0.0,1.0
1625450617.3125,0,0,0.0,0.0,1.0
1625450617.78125,0,0,23.30636977391947,0.0,1.0
1625450618.25,0,0,20.250715321978397,0.0,1.0
1625450618.71875,0,0,0.0,0.0,1.0
1625450619.1875,0,0,25.64430026402548,0.0,1.0
1625450619.65625,0,0,0.0,0.0,1.0
1625450620.125,0,0,24.467956537407883,0.0,1.0
1625450620.59375,0,0,0.0,0.0,1.0
1625450621.0625,0,0,25.45838839231731,0.0,1.0
1625450621.53125,0,0,0.0,0.0,1.0
1625450622.0,0,0,0.0,0.0,1.0
1625450622.46875,0,0,18.3735770562308,0.0,1.0
1625450622.9375,0,0,0.0,0.0,1.0
1625450623.40625,0,0,16.352114219944667,0.0,1.0
1625450623.875,0,0,0.0,0.0,1.0
1625450624.34375,0,0,0.0,0.0,1.0
1625450624.8125,0,0,21.700954345034614,0.0,1.0
1625450625.28125,0,0,0.0,0.0,1.0
1625450625.75,0,0,22.70884348824366,0.0,1.0
1625450626.21875,0,0,0.0,0.0,1.0
1625450626.6875,0,0,22.912993650899647,0.0,1.0
1625450627.15625,0,0,21.515009101507907,0.0,1.0
1625450627.625,0,0,0.0,0.0,1.0
1625450628.09375,0,0,19.631791290009858,0.0,1.0
1625450628.5625,0,0,25.41619632749643,0.0,1.0
1625450629.03125,0,0,0.0,0.0,1.0
1625450629.5,0,0,30.131258242051405,0.0,1.0
1625450629.96875,0,0,0.0,0.0,1.0
1625450630.4375,0,0,31.27529149412957,0.0,1.0
1625450630.90625,0,0,0.0,0.0,1.0
1625450631.375,0,0,0.0,0.0,1.0
1625450631.84375,0,0,30.34611998065814,0.0,1.0
1625450632.3125,0,0,0.0,0.0,1.0
1625450632.78125,0,0,25.37973097499949,0.0,1.0
1625450633.25,0,0,0.0,0.0,1.0
1625450633.71875,0,0,21.134971694480157,0.0,1.0
1625450634.1875,0,0,0.0,0.0,1.0
1625450634.65625,0,0,28.53856318535825,0.0,1.0
1625450635.125,0,0,25.099605230081966,0.0,1.0
1625450635.59375,0,0,0.0,0.0,1.0
1625450636.0625,0,0,25.863272013867114,0.0,1.0
1625450636.53125,0,0,99.55276755295169,0.0,1.0
1625450637.0,0,0,8.583989620425877,0.0,1.0
1625450637.46875,0,0,37.41722367595653,0.0,1.0
1625450637.9375,0,0,0.0,0.0,1.0
1625450638.40625,0,0,19.590892475417427,0.0,1.0
1625450638.875,0,0,0.0,0.0,1.0
1625450639.34375,0,0,31.348245561785408,0.0,1.0
1625450639.8125,0,0,31.76193688094059,0.0,1.0
1625450640.28125,0,0,0.0,0.0,1.0
1625450640.75,0,0,29.56405075265627,0.0,1.0
1625450641.21875,0,0,0.0,0.0,1.0
1625450641.6875,0,0,26.773612284571776,0.0,1.0
1625450642.15625,0,0,21.713869079891612,0.0,1.0
1625450642.625,0,0,0.0,0.0,1.0
1625450643.09375,0,0,26.884634689039604,0.0,1.0
1625450643.5625,0,0,0.0,0.0,1.0
1625450644.03125,0,0,30.30144520193914,0.0,1.0
1625450644.5,0,0,29.707879193724562,0.0,1.0
1625450644.96875,0,0,0.0,0.0,1.0
1625450645.4375,0,0,30.361330489304393,0.0,1.0
1625450645.90625,0,0,0.0,0.0,1.0
1625450646.375,0,0,27.83567768301639,0.0,1.0
1625450646.84375,0,0,23.87573301358429,0.0,1.0
1625450647.3125,0,0,0.0,0.0,1.0
1625450647.78125,0,0,25.70417348024626,0.0,1.0
1625450648.25,0,0,30.824892574884416,0.0,1.0
1625450648.71875,0,0,0.0,0.0,1.0
1625450649.1875,0,0,28.905227963496035,0.0,1.0
1625450649.65625,0,0,0.0,0.0,1.0
1625450650.125,0,0,29.68128334181903,0.0,1.0
1625450650.59375,0,0,23.804642290746347,0.0,1.0
1625450651.0625,0,0,0.0,0.0,1.0
1625450651.53125,0,0,24.603899268500903,0.0,1.0
1625450652.0,0,0,28.41425856519255,0.0,1.0
1625450652.46875,0,0,0.0,0.0,1.0
1625450652.9375,0,0,26.262784405447768,0.0,1.0
1625450653.40625,0,0,0.0,0.0,1.0
1625450653.875,0,0,23.8510945212975,0.0,1.0
1625450654.34375,0,0,24.557773406996535,0.0,1.0
1625450654.8125,0,0,0.0,0.0,1.0
1625450655.28125,0,0,22.385471761717145,0.0,1.0
1625450655.75,0,0,25.668348089923676,0.0,1.0
1625450656.21875,0,0,0.0,0.0,1.0
1625450656.6875,0,0,25.083647548813737,0.0,1.0
1625450657.15625,0,0,24.445881636059596,0.0,1.0
1625450657.625,0,0,0.0,0.0,1.0
1625450658.09375,0,0,22.501803639542775,0.0,1.0
1625450658.5625,0,0,27.6442030366015,0.0,1.0
1625450659.03125,0,0,0.0,0.0,1.0
1625450659.5,0,0,27.820204260085802,0.0,1.0
1625450659.96875,0,0,0.0,0.0,1.0
1625450660.4375,0,0,25.999499733434863,0.0,1.0
1625450660.90625,0,0,24.17198913724565,0.0,1.0
1625450661.375,0,0,0.0,0.0,1.0
1625450661.84375,0,0,20.36038089455905,0.0,1.0
1625450662.3125,0,0,25.177365864434012,0.0,1.0
1625450662.78125,0,0,0.0,0.0,1.0
1625450663.25,0,0,28.369544849143246,0.0,1.0
1625450663.71875,0,0,0.0,0.0,1.0
1625450664.1875,0,0,28.33362563565587,0.0,1.0
1625450664.65625,0,0,26.55946419288672,0.0,1.0
1625450665.125,0,0,0.0,0.0,1.0
1625450665.59375,0,0,21.258406819420706,0.0,1.0
1625450666.0625,0,0,25.37692764470548,0.0,1.0
1625450666.53125,0,0,0.0,0.0,1.0
1625450667.0,0,0,30.223692934374487,0.0,1.0
1625450667.46875,0,0,0.0,0.0,1.0
1625450667.9375,0,0,0.0,0.0,1.0
1625450668.40625,0,0,29.66347542700754,0.0,1.0
1625450668.875,0,0,0.0,0.0,1.0
1625450669.34375,0,0,25.007724461170287,0.0,1.0
1625450669.8125,0,0,0.0,0.0,1.0
1625450670.28125,0,0,25.655464096811507,0.0,1.0
1625450670.75,0,0,29.27159793203577,0.0,1.0
1625450671.21875,0,0,0.0,0.0,1.0
1625450671.6875,0,0,27.063250758120542,0.0,1.0
1625450672.15625,0,0,0.0,0.0,1.0
1625450672.625,0,0,0.0,0.0,1.0
1625450673.09375,0,0,24.55500969888924,0.0,1.0
1625450673.5625,0,0,0.0,0.0,1.0
1625450674.03125,0,0,23.690187068255398,0.0,1.0
1625450674.5,0,0,26.59901774939869,0.0,1.0
1625450674.96875,0,0,0.0,0.0,1.0
1625450675.4375,0,0,30.401445461241515,0.0,1.0
1625450675.90625,0,0,0.0,0.0,1.0
1625450676.375,0,0,31.605855804530695,0.0,1.0
1625450676.84375,0,0,28.86375906684913,0.0,1.0
1625450677.3125,0,0,0.0,0.0,1.0
1625450677.78125,0,0,24.08501238463444,0.0,1.0
1625450678.25,0,0,27.24343000304685,0.0,1.0
1625450678.71875,0,0,0.0,0.0,1.0
1625450679.1875,0,0,31.70226404445065,0.0,1.0
1625450679.65625,0,0,0.0,0.0,1.0
1625450680.125,0,0,29.92620249704043,0.0,1.0
1625450680.59375,0,0,29.57357745493135,0.0,1.0
1625450681.0625,0,0,0.0,0.0,1.0
1625450681.53125,0,0,27.478775708705204,0.0,1.0
1625450682.0,0,0,0.0,0.0,1.0
1625450682.46875,0,0,25.769763860164396,0.0,1.0
1625450682.9375,0,0,27.555207123333197,0.0,1.0
1625450683.40625,0,0,0.0,0.0,1.0
1625450683.875,0,0,29.15687022980022,0.0,1.0
1625450684.34375,0,0,0.0,0.0,1.0
1625450684.8125,0,0,0.0,0.0,1.0
1625450685.28125,0,0,27.19441550687756,0.0,1.0
1625450685.75,0,0,0.0,0.0,1.0
1625450686.21875,0,0,24.177015391798008,0.0,1.0
1625450686.6875,0,0,24.504586993830856,0.0,1.0
1625450687.15625,0,0,0.0,0.0,1.0
1625450687.625,0,0,30.177084626477985,0.0,1.0
1625450688.09375,0,0,0.0,0.0,1.0
1625450688.5625,0,0,32.44627279968718,0.0,1.0
1625450689.03125,0,0,30.283656994921497,0.0,1.0
1625450689.5,0,0,0.0,0.0,1.0
1625450689.96875,0,0,29.677804004076076,0.0,1.0
1625450690.4375,0,0,0.0,0.0,1.0
1625450690.90625,0,0,27.74661255272187,0.0,1.0
1625450691.375,0,0,26.379955054863572,0.0,1.0
1625450691.84375,0,0,0.0,0.0,1.0
1625450692.3125,0,0,29.939314937458825,0.0,1.0
1625450692.78125,0,0,31.31524893816283,0.0,1.0
1625450693.25,0,0,0.0,0.0,1.0
1625450693.71875,0,0,30.588106759948115,0.0,1.0
1625450694.1875,0,0,0.0,0.0,1.0
1625450694.65625,0,0,33.00044196729523,0.0,1.0
1625450695.125,0,0,26.527473192989724,0.0,1.0
1625450695.59375,0,0,0.0,0.0,1.0
1625450696.0625,0,0,30.273266746868835,0.0,1.0
1625450696.53125,0,0,0.0,0.0,1.0
1625450697.0,0,0,32.93143428206918,0.0,1.0
1625450697.46875,0,0,0.0,0.0,1.0
1625450697.9375,0,0,0.0,0.0,1.0
1625450698.40625,0,0,31.9314393706763,0.0,1.0
1625450698.875,0,0,0.0,0.0,1.0
1625450699.34375,0,0,30.462427630569184,0.0,1.0
1625450699.8125,0,0,0.0,0.0,1.0
1625450700.28125,0,0,0.0,0.0,1.0
1625450700.75,0,0,28.62004610296582,0.0,1.0
1625450701.21875,0,0,0.0,0.0,1.0
1625450701.6875,0,0,31.683964358186277,0.0,1.0
1625450702.15625,0,0,29.834164498374268,0.0,1.0
1625450702.625,0,0,0.0,0.0,1.0
1625450703.09375,0,0,32.300485496634444,0.0,1.0
1625450703.5625,0,0,0.0,0.0,1.0
1625450704.03125,0,0,27.144902077708064,0.0,1.0
1625450704.5,0,0,23.04690376934619,0.0,1.0
1625450704.96875,0,0,0.0,0.0,1.0
1625450705.4375,0,0,27.590475859696213,0.0,1.0
1625450705.90625,0,0,33.750904923304205,0.0,1.0
1625450706.375,0,0,0.0,0.0,1.0
1625450706.84375,0,0,34.17340884894482,0.0,1.0
1625450707.3125,0,0,0.0,0.0,1.0
1625450707.78125,0,0,32.32375814054527,0.0,1.0
1625450708.25,0,0,28.625355359216297,0.0,1.0
1625450708.71875,0,0,0.0,0.0,1.0
1625450709.1875,0,0,28.717250303302222,0.0,1.0
1625450709.65625,0,0,35.17894244803146,0.0,1.0
1625450710.125,0,0,0.0,0.0,1.0
1625450710.59375,0,0,34.523488751351366,0.0,1.0
1625450711.0625,0,0,0.0,0.0,1.0
1625450711.53125,0,0,32.60287341671432,0.0,1.0
1625450712.0,0,0,0.0,0.0,1.0
1625450712.46875,0,0,0.0,0.0,1.0
1625450712.9375,0,0,22.460344203868154,0.0,1.0
1625450713.40625,0,0,0.0,0.0,1.0
1625450713.875,0,0,26.478925440256777,0.0,1.0
1625450714.34375,0,0,32.546127590044826,0.0,1.0
1625450714.8125,0,0,0.0,0.0,1.0
1625450715.28125,0,0,24.65206507941912,0.0,1.0
1625450715.75,0,0,0.0,0.0,1.0
1625450716.21875,0,0,28.789790220172023,0.0,1.0
1625450716.6875,0,0,22.807951368402385,0.0,1.0
1625450717.15625,0,0,0.0,0.0,1.0
1625450717.625,0,0,23.494700058690217,0.0,1.0
1625450718.09375,0,0,22.030837783766433,0.0,1.0
1625450718.5625,0,0,0.0,0.0,1.0
1625450719.03125,0,0,30.21396297769858,0.0,1.0
1625450719.5,0,0,27.142850048666805,0.0,1.0
1625450719.96875,0,0,0.0,0.0,1.0
1625450720.4375,0,0,29.57465731629651,0.0,1.0
1625450720.90625,0,0,0.0,0.0,1.0
1625450721.375,0,0,26.22870868962266,0.0,1.0
1625450721.84375,0,0,23.769292492729257,0.0,1.0
1625450722.3125,0,0,0.0,0.0,1.0
1625450722.78125,0,0,27.50002449431672,0.0,1.0
1625450723.25,0,0,0.0,0.0,1.0
1625450723.71875,0,0,31.440124178761174,0.0,1.0
1625450724.1875,0,0,27.834964752832985,0.0,1.0
1625450724.65625,0,0,0.0,0.0,1.0
1625450725.125,0,0,31.21179390768866,0.0,1.0
1625450725.59375,0,0,0.0,0.0,1.0
1625450726.0625,0,0,22.13605394167119,0.0,1.0
1625450726.53125,0,0,23.733423489139724,0.0,1.0
1625450727.0,0,0,0.0,0.0,1.0
1625450727.46875,0,0,25.695213972976443,0.0,1.0
1625450727.9375,0,0,30.13722364798942,0.0,1.0
1625450728.40625,0,0,0.0,0.0,1.0
1625450728.875,0,0,26.958278812553566,0.0,1.0
1625450729.34375,0,0,0.0,0.0,1.0
1625450729.8125,0,0,24.903255330452534,0.0,1.0
1625450730.28125,0,0,21.04613566578113,0.0,1.0
1625450730.75,0,0,0.0,0.0,1.0
1625450731.21875,0,0,25.09958318967691,0.0,1.0
1625450731.6875,0,0,30.552223341433447,0.0,1.0
1625450732.15625,0,0,0.0,0.0,1.0
1625450732.625,0,0,29.952806620713847,0.0,1.0
1625450733.09375,0,0,28.93064058775537,0.0,1.0
1625450733.5625,0,0,0.0,0.0,1.0
1625450734.03125,0,0,26.665888027661506,0.0,1.0
1625450734.5,0,0,0.0,0.0,1.0
1625450734.96875,0,0,22.219143829863036,0.0,1.0
1625450735.4375,0,0,25.997493008678664,0.0,1.0
1625450735.90625,0,0,0.0,0.0,1.0
1625450736.375,0,0,30.485330446237416,0.0,1.0
1625450736.84375,0,0,28.458206441430054,0.0,1.0
1625450737.3125,0,0,0.0,0.0,1.0
1625450737.78125,0,0,31.445643989214247,0.0,1.0
1625450738.25,0,0,0.0,0.0,1.0
1625450738.71875,0,0,0.0,0.0,1.0
1625450739.1875,0,0,26.854473183866332,0.0,1.0
1625450739.65625,0,0,0.0,0.0,1.0
1625450740.125,0,0,23.659630757652927,0.0,1.0
1625450740.59375,0,0,32.60802782372736,0.0,1.0
1625450741.0625,0,0,0.0,0.0,1.0
1625450741.53125,0,0,30.92288420030525,0.0,1.0
1625450742.0,0,0,0.0,0.0,1.0
1625450742.46875,0,0,0.0,0.0,1.0
1625450742.9375,0,0,26.09595327223162,0.0,1.0
1625450743.40625,0,0,0.0,0.0,1.0
1625450743.875,0,0,24.445855709505828,0.0,1.0
1625450744.34375,0,0,0.0,0.0,1.0
1625450744.8125,0,0,0.0,0.0,1.0
1625450745.28125,0,0,30.060754282370077,0.0,1.0
1625450745.75,0,0,0.0,0.0,1.0
1625450746.21875,0,0,27.332061327562332,0.0,1.0
1625450746.6875,0,0,27.44285887259883,0.0,1.0
1625450747.15625,0,0,0.0,0.0,1.0
1625450747.625,0,0,19.571734127509508,0.0,1.0
1625450748.09375,0,0,24.963992050454006,0.0,1.0
1625450748.5625,0,0,0.0,0.0,1.0
1625450749.03125,0,0,29.99285659096333,0.0,1.0
1625450749.5,0,0,30.24370914448195,0.0,1.0
1625450749.96875,0,0,0.0,0.0,1.0
1625450750.4375,0,0,29.943713060921564,0.0,1.0
1625450750.90625,0,0,0.0,0.0,1.0
1625450751.375,0,0,26.022221361977618,0.0,1.0
1625450751.84375,0,0,27.40223961827338,0.0,1.0
1625450752.3125,0,0,0.0,0.0,1.0
1625450752.78125,0,0,29.261112963535762,0.0,1.0
1625450753.25,0,0,26.756994304646884,0.0,1.0
1625450753.71875,0,0,0.0,0.0,1.0
1625450754.1875,0,0,26.357469510908892,0.0,1.0
1625450754.65625,0,0,0.0,0.0,1.0
1625450755.125,0,0,22.53731153844093,0.0,1.0
1625450755.59375,0,0,31.789546487500758,0.0,1.0
1625450756.0625,0,0,0.0,0.0,1.0
1625450756.53125,0,0,26.69070860630203,0.0,1.0
1625450757.0,0,0,28.15953912030965,0.0,1.0
1625450757.46875,0,0,0.0,0.0,1.0
1625450757.9375,0,0,26.701518642330978,0.0,1.0
1625450758.40625,0,0,0.0,0.0,1.0
1625450758.875,0,0,0.0,0.0,1.0
1625450759.34375,0,0,27.178890803629958,0.0,1.0
1625450759.8125,0,0,0.0,0.0,1.0
1625450760.28125,0,0,30.8441587989317,0.0,1.0
1625450760.75,0,0,30.435479227918506,0.0,1.0
1625450761.21875,0,0,0.0,0.0,1.0
1625450761.6875,0,0,29.51090286279545,0.0,1.0
1625450762.15625,0,0,0.0,0.0,1.0
1625450762.625,0,0,0.0,0.0,1.0
1625450763.09375,0,0,31.45813665650743,0.0,1.0
1625450763.5625,0,0,0.0,0.0,1.0
1625450764.03125,0,0,32.45816134813007,0.0,1.0
1625450764.5,0,0,32.027200684323645,0.0,1.0
1625450764.96875,0,0,0.0,0.0,1.0
1625450765.4375,0,0,31.064618656232934,0.0,1.0
1625450765.90625,0,0,0.0,0.0,1.0
1625450766.375,0,0,27.232959286118728,0.0,1.0
1625450766.84375,0,0,25.01926071415125,0.0,1.0
1625450767.3125,0,0,0.0,0.0,1.0
1625450767.78125,0,0,32.973615486318536,0.0,1.0
1625450768.25,0,0,0.0,0.0,1.0
1625450768.71875,0,0,0.0,0.0,1.0
1625450769.1875,0,0,35.75906080417694,0.0,1.0
1625450769.65625,0,0,0.0,0.0,1.0
1625450770.125,0,0,34.08389210020464,0.0,1.0
1625450770.59375,0,0,27.201145274663798,0.0,1.0
1625450771.0625,0,0,0.0,0.0,1.0
1625450771.53125,0,0,31.16038837273298,0.0,1.0
1625450772.0,0,0,0.0,0.0,1.0
1625450772.46875,0,0,34.442780719893435,0.0,1.0
1625450772.9375,0,0,30.592420164541767,0.0,1.0
1625450773.40625,0,0,0.0,0.0,1.0
1625450773.875,0,0,32.83807061129514,0.0,1.0
1625450774.34375,0,0,0.0,0.0,1.0
1625450774.8125,0,0,26.817667540855478,0.0,1.0
1625450775.28125,0,0,25.91813306882274,0.0,1.0
1625450775.75,0,0,0.0,0.0,1.0
1625450776.21875,0,0,31.953329360394196,0.0,1.0
1625450776.6875,0,0,0.0,0.0,1.0
1625450777.15625,0,0,0.0,0.0,1.0
1625450777.625,0,0,39.02749751569922,0.0,1.0
1625450778.09375,0,0,0.0,0.0,1.0
1625450778.5625,0,0,37.69243388226161,0.0,1.0
1625450779.03125,0,0,0.0,0.0,1.0
1625450779.5,0,0,34.62094538700309,0.0,1.0
1625450779.96875,0,0,0.0,0.0,1.0
1625450780.4375,0,0,0.0,0.0,1.0
1625450780.90625,0,0,31.711847442256122,0.0,1.0
1625450781.375,0,0,0.0,0.0,1.0
1625450781.84375,0,0,33.21841599545142,0.0,1.0
1625450782.3125,0,0,0.0,0.0,1.0
1625450782.78125,0,0,32.043860846659975,0.0,1.0
1625450783.25,0,0,29.947474304214143,0.0,1.0
1625450783.71875,0,0,0.0,0.0,1.0
1625450784.1875,0,0,25.189591310575437,0.0,1.0
1625450784.65625,0,0,0.0,0.0,1.0
1625450785.125,0,0,29.404256800665102,0.0,1.0
1625450785.59375,0,0,33.92546412021259,0.0,1.0
1625450786.0625,0,0,0.0,0.0,1.0
1625450786.53125,0,0,35.46162423042469,0.0,1.0
1625450787.0,0,0,0.0,0.0,1.0
1625450787.46875,0,0,32.262770532425755,0.0,1.0
1625450787.9375,0,0,28.570663545919977,0.0,1.0
1625450788.40625,0,0,0.0,0.0,1.0
1625450788.875,0,0,28.90750587051083,0.0,1.0
1625450789.34375,0,0,34.92566783215879,0.0,1.0
1625450789.8125,0,0,0.0,0.0,1.0
1625450790.28125,0,0,33.579811359284996,0.0,1.0
1625450790.75,0,0,0.0,0.0,1.0
1625450791.21875,0,0,34.636152595436016,0.0,1.0
1625450791.6875,0,0,0.0,0.0,1.0
1625450792.15625,0,0,31.63695167686095,0.0,1.0
1625450792.625,0,0,29.526126919603048,0.0,1.0
1625450793.09375,0,0,0.0,0.0,1.0
1625450793.5625,0,0,32.580909789798255,0.0,1.0
1625450794.03125,0,0,0.0,0.0,1.0
1625450794.5,0,0,32.576036266521974,0.0,1.0
1625450794.96875,0,0,32.958400957999274,0.0,1.0
1625450795.4375,0,0,0.0,0.0,1.0
1625450795.90625,0,0,30.18398409161734,0.0,1.0
1625450796.375,0,0,0.0,0.0,1.0
1625450796.84375,0,0,24.66161190705369,0.0,1.0
1625450797.3125,0,0,25.598259805885903,0.0,1.0
1625450797.78125,0,0,0.0,0.0,1.0
1625450798.25,0,0,30.57687321747303,0.0,1.0
1625450798.71875,0,0,31.246027281856968,0.0,1.0
1625450799.1875,0,0,0.0,0.0,1.0
1625450799.65625,0,0,30.94337855808565,0.0,1.0
1625450800.125,0,0,0.0,0.0,1.0
1625450800.59375,0,0,27.44467619659851,0.0,1.0
1625450801.0625,0,0,27.849009363149076,0.0,1.0
1625450801.53125,0,0,0.0,0.0,1.0
1625450802.0,0,0,33.09357156721875,0.0,1.0
1625450802.46875,0,0,0.0,0.0,1.0
1625450802.9375,0,0,34.73216966150246,0.0,1.0
1625450803.40625,0,0,32.25100215521429,0.0,1.0
1625450803.875,0,0,0.0,0.0,1.0
1625450804.34375,0,0,29.63432638778188,0.0,1.0
1625450804.8125,0,0,0.0,0.0,1.0
1625450805.28125,0,0,23.51270646625992,0.0,1.0
1625450805.75,0,0,0.0,0.0,1.0
1625450806.21875,0,0,28.314565573302758,0.0,1.0
1625450806.6875,0,0,33.518609517291154,0.0,1.0
1625450807.15625,0,0,0.0,0.0,1.0
1625450807.625,0,0,33.45321246035844,0.0,1.0
1625450808.09375,0,0,0.0,0.0,1.0
1625450808.5625,0,0,32.47467314128479,0.0,1.0
1625450809.03125,0,0,31.182724579809005,0.0,1.0
1625450809.5,0,0,0.0,0.0,1.0
1625450809.96875,0,0,25.287547886048024,0.0,1.0
1625450810.4375,0,0,0.0,0.0,1.0
1625450810.90625,0,0,23.27833638419957,0.0,1.0
1625450811.375,0,0,28.077589248425877,0.0,1.0
1625450811.84375,0,0,0.0,0.0,1.0
1625450812.3125,0,0,31.956068184203097,0.0,1.0
1625450812.78125,0,0,0.0,0.0,1.0
1625450813.25,0,0,0.0,0.0,1.0
1625450813.71875,0,0,29.316278131904735,0.0,1.0
1625450814.1875,0,0,0.0,0.0,1.0
1625450814.65625,0,0,24.292077489002786,0.0,1.0
1625450815.125,0,0,27.23166838866633,0.0,1.0
1625450815.59375,0,0,0.0,0.0,1.0
1625450816.0625,0,0,36.25208053625436,0.0,1.0
1625450816.53125,0,0,0.0,0.0,1.0
1625450817.0,0,0,0.0,0.0,1.0
1625450817.46875,0,0,32.55184115503778,0.0,1.0
1625450817.9375,0,0,0.0,0.0,1.0
1625450818.40625,0,0,30.953838662634837,0.0,1.0
1625450818.875,0,0,0.0,0.0,1.0
1625450819.34375,0,0,27.147753404609286,0.0,1.0
1625450819.8125,0,0,24.308815069185886,0.0,1.0
1625450820.28125,0,0,0.0,0.0,1.0
1625450820.75,0,0,29.558900423987655,0.0,1.0
1625450821.21875,0,0,29.53498472366459,0.0,1.0
1625450821.6875,0,0,0.0,0.0,1.0
1625450822.15625,0,0,29.607668335181913,0.0,1.0
1625450822.625,0,0,0.0,0.0,1.0
1625450823.09375,0,0,27.024957965359604,0.0,1.0
1625450823.5625,0,0,0.0,0.0,1.0
1625450824.03125,0,0,27.731094601970916,0.0,1.0
1625450824.5,0,0,25.476869089307037,0.0,1.0
1625450824.96875,0,0,0.0,0.0,1.0
1625450825.4375,0,0,22.954808584089513,0.0,1.0
1625450825.90625,0,0,0.0,0.0,2.0
1625450826.375,0,0,45.194556958564085,0.0,2.0
1625450826.84375,0,0,-26.650964434290984,0.0,2.0
1625450827.3125,0,0,61.92528520993823,0.0,2.0
1625450827.78125,0,0,23.765127197462643,0.0,2.0
1625450828.25,0,0,127.26130764162157,0.0,2.0
1625450828.71875,0,0,0.0,0.0,2.0
1625450829.1875,0,0,518.7079781382229,0.0,2.0
1625450829.65625,0,0,-52.06238516481784,0.0,2.0
1625450830.125,0,0,263.34828500914034,0.0,2.0
1625450830.59375,0,0,0.0,0.0,2.0
1625450831.0625,0,0,0.0,0.0,2.0
1625450831.53125,0,0,231.47941740513596,0.0,2.0
1625450832.0,0,0,0.0,0.0,2.0
1625450832.46875,0,0,228.01589240606845,0.0,2.0
1625450832.9375,0,0,0.0,0.0,2.0
1625450833.40625,0,0,486.4831441478908,0.0,2.0
1625450833.875,0,0,65.91294724404742,0.0,2.0
1625450834.34375,0,0,224.10118673397926,0.0,2.0
1625450834.8125,0,0,88.19431954812073,0.0,2.0
1625450835.28125,0,0,-40.64637217026869,0.0,2.0
1625450835.75,0,0,84.45668738358349,0.0,2.0
1625450836.21875,0,0,208.4455051267136,0.0,2.0
1625450836.6875,0,0,83.21131509597214,0.0,2.0
1625450837.15625,0,0,189.0455716833855,0.0,2.0
1625450837.625,0,0,0.0,0.0,2.0
1625450838.09375,0,0,843.9712214948723,0.0,2.0
1625450838.5625,0,0,131.8420627674582,0.0,2.0
1625450839.03125,0,0,0.0,0.0,2.0
1625450839.5,0,0,0.0,0.0,2.0
1625450839.96875,0,0,137.75310262934892,0.0,2.0
1625450840.4375,0,0,59.4653870575655,0.0,2.0
1625450840.90625,0,0,62.09232419842319,0.0,2.0
1625450841.375,0,0,128.66552114920108,0.0,2.0
1625450841.84375,0,0,45.36217996929081,0.0,2.0
1625450842.3125,0,0,105.74396533438299,0.0,2.0
1625450842.78125,0,0,36.04038253982653,0.0,2.0
1625450843.25,0,0,-2.404010550138223,0.0,2.0
1625450843.71875,0,0,33.76407317566533,0.0,2.0
1625450844.1875,0,0,366.7611568911677,0.0,2.0
1625450844.65625,0,0,0.0,0.0,2.0
1625450845.125,0,0,59.72308370121915,0.0,2.0
1625450845.59375,0,0,235.17583505602866,0.0,2.0
1625450846.0625,0,0,5.94905931600257,0.0,2.0
1625450846.53125,0,0,395.4116969341107,0.0,2.0
1625450847.0,0,0,225.79746107087507,0.0,2.0
1625450847.46875,0,0,308.0393827426375,0.0,2.0
1625450847.9375,0,0,0.0,0.0,2.0
1625450848.40625,0,0,177.5554735504436,0.0,2.0
1625450848.875,0,0,40.16775887851543,0.0,2.0
1625450849.34375,0,0,0.0,0.0,2.0
1625450849.8125,0,0,151.55993505679115,0.0,2.0
1625450850.28125,0,0,-2.376205217102356,0.0,2.0
1625450850.75,0,0,-9.47353633613244,0.0,2.0
1625450851.21875,0,0,230.8239431001887,0.0,2.0
1625450851.6875,0,0,0.0,0.0,2.0
1625450852.15625,0,0,37.58213114622816,0.0,2.0
1625450852.625,0,0,-16.300459590215137,0.0,2.0
1625450853.09375,0,0,332.4803311386667,0.0,2.0
1625450853.5625,0,0,0.0,0.0,2.0
1625450854.03125,0,0,0.0,0.0,2.0
1625450854.5,0,0,147.85979394785122,0.0,2.0
1625450854.96875,0,0,180.5085819089002,0.0,2.0
1625450855.4375,0,0,0.0,0.0,2.0
1625450855.90625,0,0,0.0,0.0,2.0
1625450856.375,0,0,243.65203016872735,0.0,2.0
1625450856.84375,0,0,121.92419414633657,0.0,2.0
1625450857.3125,0,0,-55.13300148734967,0.0,2.0
1625450857.78125,0,0,35.66535624579111,0.0,2.0
1625450858.25,0,0,249.77439098121027,0.0,2.0
1625450858.71875,0,0,0.0,0.0,2.0
1625450859.1875,0,0,0.0,0.0,2.0
1625450859.65625,0,0,245.9581558631759,0.0,2.0
1625450860.125,0,0,-75.63446907434756,0.0,2.0
1625450860.59375,0,0,246.4362690147687,0.0,2.0
1625450861.0625,0,0,173.83473979125006,0.0,2.0
1625450861.53125,0,0,0.0,0.0,2.0
1625450862.0,0,0,264.82469238744295,0.0,2.0
1625450862.46875,0,0,239.73176334003787,0.0,2.0
1625450862.9375,0,0,144.93585750646213,0.0,2.0
1625450863.40625,0,0,0.0,0.0,2.0
1625450863.875,0,0,0.0,0.0,2.0
1625450864.34375,0,0,61.656671038987696,0.0,2.0
1625450864.8125,0,0,0.0,0.0,2.0
1625450865.28125,0,0,83.92752397581918,0.0,2.0
1625450865.75,0,0,70.33824008745027,0.0,2.0
1625450866.21875,0,0,0.0,0.0,2.0
1625450866.6875,0,0,70.04674027370991,0.0,2.0
1625450867.15625,0,0,0.0,0.0,2.0
1625450867.625,0,0,55.293598458991774,0.0,2.0
1625450868.09375,0,0,0.0,0.0,2.0
1625450868.5625,0,0,51.41282529068663,0.0,2.0
1625450869.03125,0,0,0.0,0.0,2.0
1625450869.5,0,0,85.99615761459671,0.0,2.0
1625450869.96875,0,0,115.65419703391852,0.0,2.0
1625450870.4375,0,0,0.0,0.0,2.0
1625450870.90625,0,0,52.63628423786779,0.0,2.0
1625450871.375,0,0,0.0,0.0,2.0
1625450871.84375,0,0,49.800205839620475,0.0,2.0
1625450872.3125,0,0,43.57000517027188,0.0,2.0
1625450872.78125,0,0,0.0,0.0,2.0
1625450873.25,0,0,45.2559214725624,0.0,2.0
1625450873.71875,0,0,124.82228392483712,0.0,2.0
1625450874.1875,0,0,0.0,0.0,2.0
1625450874.65625,0,0,386.8583029389588,0.0,2.0
1625450875.125,0,0,35.39801134782997,0.0,2.0
1625450875.59375,0,0,60.42383516658004,0.0,2.0
1625450876.0625,0,0,-24.747351309628247,0.0,2.0
1625450876.53125,0,0,236.58935985267755,0.0,2.0
1625450877.0,0,0,192.9856980868492,0.0,2.0
1625450877.46875,0,0,288.54943039991656,0.0,2.0
1625450877.9375,0,0,-99.61768433605364,0.0,2.0
1625450878.40625,0,0,114.5620092505169,0.0,2.0
1625450878.875,0,0,214.5964559517711,0.0,2.0
1625450879.34375,0,0,0.0,0.0,2.0
1625450879.8125,0,0,381.803954188784,0.0,2.0
1625450880.28125,0,0,0.0,0.0,2.0
1625450880.75,0,0,151.94857254771793,0.0,2.0
1625450881.21875,0,0,-44.42773289260802,0.0,2.0
1625450881.6875,0,0,244.3350253254102,0.0,2.0
1625450882.15625,0,0,520.5106860868362,0.0,2.0
1625450882.625,0,0,377.6268228710106,0.0,2.0
1625450883.09375,0,0,169.362823235338,0.0,2.0
1625450883.5625,0,0,0.0,0.0,2.0
1625450884.03125,0,0,155.36331940794958,0.0,2.0
1625450884.5,0,0,78.55992779271986,0.0,2.0
1625450884.96875,0,0,95.69481354618392,0.0,2.0
1625450885.4375,0,0,46.94646876341601,0.0,2.0
1625450885.90625,0,0,9.296519470192788,0.0,2.0
1625450886.375,0,0,0.0,0.0,2.0
1625450886.84375,0,0,33.07528329418862,0.0,2.0
1625450887.3125,0,0,26.843603081294816,0.0,2.0
1625450887.78125,0,0,18.698790476901504,0.0,2.0
1625450888.25,0,0,0.0,0.0,2.0
1625450888.71875,0,0,36.14919264296423,0.0,2.0
1625450889.1875,0,0,22.274982307857425,0.0,2.0
1625450889.65625,0,0,27.194078473467208,0.0,2.0
1625450890.125,0,0,0.0,0.0,2.0
1625450890.59375,0,0,27.458437765976434,0.0,2.0
1625450891.0625,0,0,20.35076838109594,0.0,2.0
1625450891.53125,0,0,32.47355017633275,0.0,2.0
1625450892.0,0,0,0.0,0.0,2.0
1625450892.46875,0,0,38.74495506404967,0.0,2.0
1625450892.9375,0,0,45.339247242814814,0.0,2.0
1625450893.40625,0,0,0.0,0.0,2.0
1625450893.875,0,0,59.13691064034706,0.0,2.0
1625450894.34375,0,0,0.0,0.0,2.0
1625450894.8125,0,0,51.32078006436273,0.0,2.0
1625450895.28125,0,0,0.0,0.0,2.0
1625450895.75,0,0,0.0,0.0,2.0
1625450896.21875,0,0,52.608493010453955,0.0,2.0
1625450896.6875,0,0,0.0,0.0,2.0
1625450897.15625,0,0,42.64260071174424,0.0,2.0
1625450897.625,0,0,36.5623017494333,0.0,2.0
1625450898.09375,0,0,0.0,0.0,2.0
1625450898.5625,0,0,37.164316244978906,0.0,2.0
1625450899.03125,0,0,0.0,0.0,2.0
1625450899.5,0,0,44.43900626555883,0.0,2.0
1625450899.96875,0,0,41.70070737737703,0.0,2.0
1625450900.4375,0,0,0.0,0.0,2.0
1625450900.90625,0,0,45.719712616054004,0.0,2.0
1625450901.375,0,0,42.71289917341508,0.0,2.0
1625450901.84375,0,0,0.0,0.0,2.0
1625450902.3125,0,0,44.29246800877908,0.0,2.0
1625450902.78125,0,0,0.0,0.0,2.0
1625450903.25,0,0,40.01839972320984,0.0,2.0
1625450903.71875,0,0,40.44982096297152,0.0,2.0
1625450904.1875,0,0,0.0,0.0,2.0
1625450904.65625,0,0,48.2552764673867,0.0,2.0
1625450905.125,0,0,0.0,0.0,2.0
1625450905.59375,0,0,47.57348844938456,0.0,2.0
1625450906.0625,0,0,0.0,0.0,2.0
1625450906.53125,0,0,45.4033362090538,0.0,2.0
1625450907.0,0,0,0.0,0.0,2.0
1625450907.46875,0,0,0.0,0.0,2.0
1625450907.9375,0,0,41.90659797753475,0.0,2.0
1625450908.40625,0,0,0.0,0.0,2.0
1625450908.875,0,0,41.843555334624455,0.0,2.0
1625450909.34375,0,0,0.0,0.0,2.0
1625450909.8125,0,0,36.34924314869298,0.0,2.0
1625450910.28125,0,0,37.53275882709112,0.0,2.0
1625450910.75,0,0,0.0,0.0,2.0
1625450911.21875,0,0,48.64183440425075,0.0,2.0
1625450911.6875,0,0,0.0,0.0,2.0
1625450912.15625,0,0,53.575093262322326,0.0,2.0
1625450912.625,0,0,52.35305051844177,0.0,2.0
1625450913.09375,0,0,0.0,0.0,2.0
1625450913.5625,0,0,54.72795119175384,0.0,2.0
1625450914.03125,0,0,0.0,0.0,2.0
1625450914.5,0,0,48.867768460078196,0.0,2.0
1625450914.96875,0,0,0.0,0.0,2.0
1625450915.4375,0,0,45.21740001106751,0.0,2.0
1625450915.90625,0,0,0.0,0.0,2.0
1625450916.375,0,0,37.28261075915445,0.0,2.0
1625450916.84375,0,0,0.0,0.0,2.0
1625450917.3125,0,0,32.969150769989845,0.0,2.0
1625450917.78125,0,0,37.57908832998526,0.0,2.0
1625450918.25,0,0,0.0,0.0,2.0
1625450918.71875,0,0,50.492169942693906,0.0,2.0
1625450919.1875,0,0,56.444332287605945,0.0,2.0
1625450919.65625,0,0,0.0,0.0,2.0
1625450920.125,0,0,46.352760733669115,0.0,2.0
1625450920.59375,0,0,0.0,0.0,2.0
1625450921.0625,0,0,43.801462572102,0.0,2.0
1625450921.53125,0,0,44.4810279933002,0.0,2.0
1625450922.0,0,0,0.0,0.0,2.0
1625450922.46875,0,0,42.79414152420523,0.0,2.0
1625450922.9375,0,0,0.0,0.0,2.0
1625450923.40625,0,0,0.0,0.0,2.0
1625450923.875,0,0,45.8293400736919,0.0,2.0
1625450924.34375,0,0,0.0,0.0,2.0
1625450924.8125,0,0,44.55624482265222,0.0,2.0
1625450925.28125,0,0,0.0,0.0,2.0
1625450925.75,0,0,41.227877100161614,0.0,2.0
1625450926.21875,0,0,0.0,0.0,2.0
1625450926.6875,0,0,32.734481075716175,0.0,2.0
1625450927.15625,0,0,40.43184525479537,0.0,2.0
1625450927.625,0,0,0.0,0.0,2.0
1625450928.09375,0,0,52.24443475126183,0.0,2.0
1625450928.5625,0,0,0.0,0.0,2.0
1625450929.03125,0,0,46.76014339315218,0.0,2.0
1625450929.5,0,0,0.0,0.0,2.0
1625450929.96875,0,0,43.51316686951511,0.0,2.0
1625450930.4375,0,0,40.080030643140745,0.0,2.0
1625450930.90625,0,0,0.0,0.0,2.0
1625450931.375,0,0,36.92890268549399,0.0,2.0
1625450931.84375,0,0,0.0,0.0,2.0
1625450932.3125,0,0,0.0,0.0,2.0
1625450932.78125,0,0,35.71183556474254,0.0,2.0
1625450933.25,0,0,0.0,0.0,2.0
1625450933.71875,0,0,29.364300012170798,0.0,2.0
1625450934.1875,0,0,40.2457402947516,0.0,2.0
1625450934.65625,0,0,0.0,0.0,2.0
1625450935.125,0,0,42.516930358943256,0.0,2.0
1625450935.59375,0,0,41.47908886533312,0.0,2.0
1625450936.0625,0,0,0.0,0.0,2.0
1625450936.53125,0,0,37.29558426010324,0.0,2.0
1625450937.0,0,0,0.0,0.0,2.0
1625450937.46875,0,0,39.2921848899126,0.0,2.0
1625450937.9375,0,0,31.71545089951809,0.0,2.0
1625450938.40625,0,0,0.0,0.0,2.0
1625450938.875,0,0,55.65016266193544,0.0,2.0
1625450939.34375,0,0,51.12118246866881,0.0,2.0
1625450939.8125,0,0,0.0,0.0,2.0
1625450940.28125,0,0,55.54888514569927,0.0,2.0
1625450940.75,0,0,0.0,0.0,2.0
1625450941.21875,0,0,50.097987122764565,0.0,2.0
1625450941.6875,0,0,0.0,0.0,2.0
1625450942.15625,0,0,36.74069899644573,0.0,2.0
1625450942.625,0,0,0.0,0.0,2.0
1625450943.09375,0,0,27.9587728333269,0.0,2.0
1625450943.5625,0,0,17.69812651521495,0.0,2.0
1625450944.03125,0,0,0.0,0.0,2.0
1625450944.5,0,0,0.0,0.0,2.0
1625450944.96875,0,0,55.58122436461758,0.0,2.0
1625450945.4375,0,0,39.3559096535187,0.0,2.0
1625450945.90625,0,0,0.0,0.0,2.0
1625450946.375,0,0,56.42947467877917,0.0,2.0
1625450946.84375,0,0,41.12102758696792,0.0,2.0
1625450947.3125,0,0,0.0,0.0,2.0
1625450947.78125,0,0,43.41127399287587,0.0,2.0
1625450948.25,0,0,45.02922776426158,0.0,2.0
1625450948.71875,0,0,0.0,0.0,2.0
1625450949.1875,0,0,43.5477610226037,0.0,2.0
1625450949.65625,0,0,0.0,0.0,2.0
1625450950.125,0,0,37.33533228443387,0.0,2.0
1625450950.59375,0,0,35.21500991725659,0.0,2.0
1625450951.0625,0,0,0.0,0.0,2.0
1625450951.53125,0,0,46.49919602068895,0.0,2.0
1625450952.0,0,0,46.240957167442794,0.0,2.0
1625450952.46875,0,0,0.0,0.0,2.0
1625450952.9375,0,0,42.3042978851247,0.0,2.0
1625450953.40625,0,0,0.0,0.0,2.0
1625450953.875,0,0,38.835375063751684,0.0,2.0
1625450954.34375,0,0,40.95226050188809,0.0,2.0
1625450954.8125,0,0,0.0,0.0,2.0
1625450955.28125,0,0,35.23148314172768,0.0,2.0
1625450955.75,0,0,0.0,0.0,2.0
1625450956.21875,0,0,33.36107341721169,0.0,2.0
1625450956.6875,0,0,28.1607651877193,0.0,2.0
1625450957.15625,0,0,0.0,0.0,2.0
1625450957.625,0,0,38.123449362901184,0.0,2.0
1625450958.09375,0,0,39.40662938576355,0.0,2.0
1625450958.5625,0,0,0.0,0.0,2.0
1625450959.03125,0,0,42.975954983295814,0.0,2.0
1625450959.5,0,0,42.82015605171465,0.0,2.0
1625450959.96875,0,0,0.0,0.0,2.0
1625450960.4375,0,0,42.900028165571854,0.0,2.0
1625450960.90625,0,0,42.811731318384915,0.0,2.0
1625450961.375,0,0,0.0,0.0,2.0
1625450961.84375,0,0,41.08534574807651,0.0,2.0
1625450962.3125,0,0,0.0,0.0,2.0
1625450962.78125,0,0,39.89652516097608,0.0,2.0
1625450963.25,0,0,38.94279438541179,0.0,2.0
1625450963.71875,0,0,0.0,0.0,2.0
1625450964.1875,0,0,35.22856210712006,0.0,2.0
1625450964.65625,0,0,34.63827560818466,0.0,2.0
1625450965.125,0,0,0.0,0.0,2.0
1625450965.59375,0,0,43.40366492862838,0.0,2.0
1625450966.0625,0,0,43.223725302830445,0.0,2.0
1625450966.53125,0,0,0.0,0.0,2.0
1625450967.0,0,0,43.61130075321458,0.0,2.0
1625450967.46875,0,0,0.0,0.0,2.0
1625450967.9375,0,0,44.50950640346882,0.0,2.0
1625450968.40625,0,0,46.22457994364507,0.0,2.0
1625450968.875,0,0,0.0,0.0,2.0
1625450969.34375,0,0,45.26050563016191,0.0,2.0
1625450969.8125,0,0,0.0,0.0,2.0
1625450970.28125,0,0,41.02020795992741,0.0,2.0
1625450970.75,0,0,35.4196383089283,0.0,2.0
1625450971.21875,0,0,0.0,0.0,2.0
1625450971.6875,0,0,36.28786973487152,0.0,2.0
1625450972.15625,0,0,0.0,0.0,2.0
1625450972.625,0,0,0.0,0.0,2.0
1625450973.09375,0,0,48.167132037828075,0.0,2.0
1625450973.5625,0,0,0.0,0.0,2.0
1625450974.03125,0,0,47.31207751685395,0.0,2.0
1625450974.5,0,0,50.59074982174434,0.0,2.0
1625450974.96875,0,0,0.0,0.0,2.0
1625450975.4375,0,0,49.30778086066159,0.0,2.0
1625450975.90625,0,0,0.0,0.0,2.0
1625450976.375,0,0,44.60783216961829,0.0,2.0
1625450976.84375,0,0,38.64641047240526,0.0,2.0
1625450977.3125,0,0,0.0,0.0,2.0
1625450977.78125,0,0,40.87766813942945,0.0,2.0
1625450978.25,0,0,35.930861776520274,0.0,2.0
1625450978.71875,0,0,0.0,0.0,2.0
1625450979.1875,0,0,38.08555542954445,0.0,2.0
1625450979.65625,0,0,47.51936784007059,0.0,2.0
1625450980.125,0,0,0.0,0.0,2.0
1625450980.59375,0,0,44.98892498372808,0.0,2.0
1625450981.0625,0,0,0.0,0.0,2.0
1625450981.53125,0,0,47.870142763650605,0.0,2.0
1625450982.0,0,0,43.68176431359126,0.0,2.0
1625450982.46875,0,0,0.0,0.0,2.0
1625450982.9375,0,0,37.16833810287013,0.0,2.0
1625450983.40625,0,0,0.0,0.0,2.0
1625450983.875,0,0,0.0,0.0,2.0
1625450984.34375,0,0,36.748999844711896,0.0,2.0
1625450984.8125,0,0,39.48074242034029,0.0,2.0
1625450985.28125,0,0,0.0,0.0,2.0
1625450985.75,0,0,63.422523600627464,0.0,2.0
1625450986.21875,0,0,0.0,0.0,2.0
1625450986.6875,0,0,48.543723683558994,0.0,2.0
1625450987.15625,0,0,49.07408646709247,0.0,2.0
1625450987.625,0,0,0.0,0.0,2.0
1625450988.09375,0,0,38.14307435755853,0.0,2.0
1625450988.5625,0,0,0.0,0.0,2.0
1625450989.03125,0,0,38.32682131671733,0.0,2.0
1625450989.5,0,0,322.21799294969514,0.0,2.0
1625450989.96875,0,0,-51.40403180717493,0.0,2.0
1625450990.4375,0,0,71.5184845180511,0.0,2.0
1625450990.90625,0,0,19.93711869257378,0.0,2.0
1625450991.375,0,0,5.405271017625109,0.0,2.0
1625450991.84375,0,0,14.086728282443906,0.0,2.0
1625450992.3125,0,0,0.0,0.0,2.0
1625450992.78125,0,0,0.0,0.0,2.0
1625450993.25,0,0,20.804787337226074,0.0,2.0
1625450993.71875,0,0,14.971325724814859,0.0,2.0
1625450994.1875,0,0,0.0,0.0,2.0
1625450994.65625,0,0,12.241884386176329,0.0,2.0
1625450995.125,0,0,20.010094046358766,0.0,2.0
1625450995.59375,0,0,0.0,0.0,2.0
1625450996.0625,0,0,16.817519384130428,0.0,2.0
1625450996.53125,0,0,0.0,0.0,2.0
1625450997.0,0,0,0.0,0.0,2.0
1625450997.46875,0,0,15.26122841041521,0.0,2.0
1625450997.9375,0,0,5.185770010257857,0.0,2.0
1625450998.40625,0,0,8.245737917025261,0.0,2.0
1625450998.875,0,0,99.41741272961504,0.0,2.0
1625450999.34375,0,0,1.7957303415977341,0.0,2.0
1625450999.8125,0,0,17.406947740409635,0.0,2.0
1625451000.28125,0,0,0.0,0.0,2.0
1625451000.75,0,0,11.133228543176998,0.0,2.0
1625451001.21875,0,0,25.49529392202799,0.0,2.0
1625451001.6875,0,0,0.0,0.0,2.0
1625451002.15625,0,0,17.310160518185633,0.0,2.0
1625451002.625,0,0,0.0,0.0,2.0
1625451003.09375,0,0,73.39799432484784,0.0,2.0
1625451003.5625,0,0,179.63092487766687,0.0,2.0
1625451004.03125,0,0,37.2063838234514,0.0,2.0
1625451004.5,0,0,59.08405920856204,0.0,2.0
1625451004.96875,0,0,0.0,0.0,2.0
1625451005.4375,0,0,3.770912218189726,0.0,2.0
1625451005.90625,0,0,19.548820745608083,0.0,2.0
1625451006.375,0,0,0.0,0.0,2.0
1625451006.84375,0,0,19.220954071383257,0.0,2.0
1625451007.3125,0,0,16.271534308889656,0.0,2.0
1625451007.78125,0,0,15.993424426440237,0.0,2.0
1625451008.25,0,0,18.747669538239908,0.0,2.0
1625451008.71875,0,0,3.1197419488230063,0.0,2.0
1625451009.1875,0,0,0.0,0.0,2.0
1625451009.65625,0,0,26.918179093767183,0.0,2.0
1625451010.125,0,0,1.8532348883855951,0.0,2.0
1625451010.59375,0,0,0.0,0.0,2.0
1625451011.0625,0,0,13.739563438458115,0.0,2.0
1625451011.53125,0,0,0.0,0.0,2.0
1625451012.0,0,0,19.33092449908601,0.0,2.0
1625451012.46875,0,0,20.175464563118293,0.0,2.0
1625451012.9375,0,0,0.0,0.0,3.0
1625451013.40625,0,0,-8.926667763949277,0.0,3.0
1625451013.875,0,0,102.59235743163674,0.0,3.0
1625451014.34375,0,0,212.16060894834646,0.0,3.0
1625451014.8125,0,0,0.0,0.0,3.0
1625451015.28125,0,0,0.0,0.0,3.0
1625451015.75,0,0,523.2967594939482,0.0,3.0
1625451016.21875,0,0,472.01221236156465,0.0,3.0
1625451016.6875,0,0,255.1885728423775,0.0,3.0
1625451017.15625,0,0,128.26482762705456,0.0,3.0
1625451017.625,0,0,-20.156453956425338,0.0,3.0
1625451018.09375,0,0,505.33406373477794,0.0,3.0
1625451018.5625,0,0,219.2697539991127,0.0,3.0
1625451019.03125,0,0,0.0,0.0,3.0
1625451019.5,0,0,69.40779385582753,0.0,3.0
1625451019.96875,0,0,27.32095184238591,0.0,3.0
1625451020.4375,0,0,0.0,0.0,3.0
1625451020.90625,0,0,37.926359036373704,0.0,3.0
1625451021.375,0,0,30.412757656270347,0.0,3.0
1625451021.84375,0,0,0.0,0.0,3.0
1625451022.3125,0,0,35.34508512836482,0.0,3.0
1625451022.78125,0,0,25.998569024007526,0.0,3.0
1625451023.25,0,0,39.34065596480945,0.0,3.0
1625451023.71875,0,0,215.04906244845552,0.0,3.0
1625451024.1875,0,0,287.15953813936136,0.0,3.0
1625451024.65625,0,0,0.0,0.0,3.0
1625451025.125,0,0,80.28790419520217,0.0,3.0
1625451025.59375,0,0,0.0,0.0,3.0
1625451026.0625,0,0,0.0,0.0,3.0
1625451026.53125,0,0,26.77385389424577,0.0,3.0
1625451027.0,0,0,32.26611601013863,0.0,3.0
1625451027.46875,0,0,0.0,0.0,3.0
1625451027.9375,0,0,27.847294254864753,0.0,3.0
1625451028.40625,0,0,0.0,0.0,3.0
1625451028.875,0,0,26.890684293554937,0.0,3.0
1625451029.34375,0,0,23.613009999340964,0.0,3.0
1625451029.8125,0,0,10.39009121508898,0.0,3.0
1625451030.28125,0,0,16.256418726265256,0.0,3.0
1625451030.75,0,0,0.0,0.0,3.0
1625451031.21875,0,0,0.0,0.0,3.0
1625451031.6875,0,0,22.565268926776856,0.0,3.0
1625451032.15625,0,0,19.86632441363622,0.0,3.0
1625451032.625,0,0,0.0,0.0,3.0
1625451033.09375,0,0,21.473935407225945,0.0,3.0
1625451033.5625,0,0,0.0,0.0,3.0
1625451034.03125,0,0,15.989581753146767,0.0,3.0
1625451034.5,0,0,13.336749669027558,0.0,3.0
1625451034.96875,0,0,0.0,0.0,3.0
1625451035.4375,0,0,15.111520024227191,0.0,3.0
1625451035.90625,0,0,14.175032781463894,0.0,3.0
1625451036.375,0,0,0.0,0.0,3.0
1625451036.84375,0,0,9.84674254677386,0.0,3.0
1625451037.3125,0,0,0.0,0.0,3.0
1625451037.78125,0,0,12.61486160741644,0.0,3.0
1625451038.25,0,0,9.809804921181607,0.0,3.0
1625451038.71875,0,0,0.0,0.0,3.0
1625451039.1875,0,0,12.564239188272483,0.0,3.0
1625451039.65625,0,0,0.0,0.0,3.0
1625451040.125,0,0,9.449288520583476,0.0,3.0
1625451040.59375,0,0,9.052472068759501,0.0,3.0
1625451041.0625,0,0,0.0,0.0,3.0
1625451041.53125,0,0,11.470790437097158,0.0,3.0
1625451042.0,0,0,0.0,0.0,3.0
1625451042.46875,0,0,11.621095662557927,0.0,3.0
1625451042.9375,0,0,11.52591216394881,0.0,3.0
1625451043.40625,0,0,0.0,0.0,3.0
1625451043.875,0,0,11.899230171901175,0.0,3.0
1625451044.34375,0,0,0.0,0.0,3.0
1625451044.8125,0,0,-1.7405106160589043,0.0,3.0
1625451045.28125,0,0,13.606152602345054,0.0,3.0
1625451045.75,0,0,0.0,0.0,3.0
1625451046.21875,0,0,11.68247626516058,0.0,3.0
1625451046.6875,0,0,13.936060962436327,0.0,3.0
1625451047.15625,0,0,0.0,0.0,3.0
1625451047.625,0,0,12.317317806207123,0.0,3.0
1625451048.09375,0,0,11.129513128747462,0.0,3.0
1625451048.5625,0,0,0.0,0.0,3.0
1625451049.03125,0,0,12.79581043118444,0.0,3.0
1625451049.5,0,0,0.0,0.0,3.0
1625451049.96875,0,0,9.884908703572826,0.0,3.0
1625451050.4375,0,0,11.871887793447382,0.0,3.0
1625451050.90625,0,0,0.0,0.0,3.0
1625451051.375,0,0,7.509389298474852,0.0,3.0
1625451051.84375,0,0,0.0,0.0,3.0
1625451052.3125,0,0,11.083948250079025,0.0,3.0
1625451052.78125,0,0,0.0,0.0,3.0
1625451053.25,0,0,13.783145496058733,0.0,3.0
1625451053.71875,0,0,11.766503132664592,0.0,3.0
1625451054.1875,0,0,0.0,0.0,3.0
1625451054.65625,0,0,8.836852250999446,0.0,3.0
1625451055.125,0,0,13.734521135427226,0.0,3.0
1625451055.59375,0,0,0.0,0.0,3.0
1625451056.0625,0,0,8.461372273214769,0.0,3.0
1625451056.53125,0,0,0.0,0.0,3.0
1625451057.0,0,0,10.329092396060489,0.0,3.0
1625451057.46875,0,0,11.521633231983692,0.0,3.0
1625451057.9375,0,0,0.0,0.0,3.0
1625451058.40625,0,0,10.916609132282627,0.0,3.0
1625451058.875,0,0,0.0,0.0,3.0
1625451059.34375,0,0,10.779161820031705,0.0,3.0
1625451059.8125,0,0,9.865228868901891,0.0,3.0
1625451060.28125,0,0,0.0,0.0,3.0
1625451060.75,0,0,8.614732766778959,0.0,3.0
1625451061.21875,0,0,2.504588965724588,0.0,3.0
1625451061.6875,0,0,9.100523934335317,0.0,3.0
1625451062.15625,0,0,0.0,0.0,3.0
1625451062.625,0,0,10.01637235215272,0.0,3.0
1625451063.09375,0,0,7.577494284591864,0.0,3.0
1625451063.5625,0,0,8.926425408639524,0.0,3.0
1625451064.03125,0,0,8.312110067178637,0.0,3.0
1625451064.5,0,0,0.0,0.0,3.0
1625451064.96875,0,0,7.539246494526236,0.0,3.0
1625451065.4375,0,0,10.357943099715524,0.0,3.0
1625451065.90625,0,0,0.0,0.0,3.0
1625451066.375,0,0,15.445341347656976,0.0,3.0
1625451066.84375,0,0,0.0,0.0,3.0
1625451067.3125,0,0,15.300857653167293,0.0,3.0
1625451067.78125,0,0,0.0,0.0,3.0
1625451068.25,0,0,0.0,0.0,3.0
1625451068.71875,0,0,10.770424708424551,0.0,3.0
1625451069.1875,0,0,0.0,0.0,3.0
1625451069.65625,0,0,10.10289777128446,0.0,3.0
1625451070.125,0,0,18.52388673907671,0.0,3.0
1625451070.59375,0,0,0.0,0.0,3.0
1625451071.0625,0,0,6.728271617461645,0.0,3.0
1625451071.53125,0,0,0.0,0.0,3.0
1625451072.0,0,0,145.62296642693664,0.0,3.0
1625451072.46875,0,0,164.22954622469365,0.0,3.0
1625451072.9375,0,0,0.0,0.0,3.0
1625451073.40625,0,0,467.63643830459546,0.0,3.0
1625451073.875,0,0,0.0,0.0,3.0
1625451074.34375,0,0,178.86058476152917,0.0,3.0
1625451074.8125,0,0,221.48566023433997,0.0,3.0
1625451075.28125,0,0,167.42735794510898,0.0,3.0
1625451075.75,0,0,102.24615199237412,0.0,3.0
1625451076.21875,0,0,118.38118659353161,0.0,3.0
1625451076.6875,0,0,75.19186573851346,0.0,3.0
1625451077.15625,0,0,12.489467766141289,0.0,3.0
1625451077.625,0,0,13.957661829794972,0.0,3.0
1625451078.09375,0,0,30.253327568517886,0.0,3.0
1625451078.5625,0,0,27.01632035486089,0.0,3.0
1625451079.03125,0,0,0.0,0.0,3.0
1625451079.5,0,0,44.45131316773654,0.0,3.0
1625451079.96875,0,0,0.0,0.0,3.0
1625451080.4375,0,0,121.90559467623845,0.0,3.0
1625451080.90625,0,0,130.2578165270236,0.0,3.0
1625451081.375,0,0,0.0,0.0,3.0
1625451081.84375,0,0,0.0,0.0,3.0
1625451082.3125,0,0,24.11634274892406,0.0,3.0
1625451082.78125,0,0,20.917230959491278,0.0,3.0
1625451083.25,0,0,0.0,0.0,3.0
1625451083.71875,0,0,10.550175952799929,0.0,3.0
1625451084.1875,0,0,15.631624715138422,0.0,3.0
1625451084.65625,0,0,0.0,0.0,3.0
1625451085.125,0,0,11.25333370147797,0.0,3.0
1625451085.59375,0,0,16.924244135688706,0.0,3.0
1625451086.0625,0,0,0.0,0.0,3.0
1625451086.53125,0,0,10.097079781829022,0.0,3.0
1625451087.0,0,0,10.963764784190912,0.0,3.0
1625451087.46875,0,0,0.0,0.0,3.0
1625451087.9375,0,0,11.846529225534175,0.0,3.0
1625451088.40625,0,0,0.0,0.0,3.0
1625451088.875,0,0,8.246547613488726,0.0,3.0
1625451089.34375,0,0,9.950759440741955,0.0,3.0
1625451089.8125,0,0,0.0,0.0,3.0
1625451090.28125,0,0,10.962371512304403,0.0,3.0
1625451090.75,0,0,11.566348603931356,0.0,3.0
1625451091.21875,0,0,0.0,0.0,3.0
1625451091.6875,0,0,9.059691021021203,0.0,3.0
1625451092.15625,0,0,0.0,0.0,3.0
1625451092.625,0,0,0.0,0.0,3.0
1625451093.09375,0,0,8.344050626134605,0.0,3.0
1625451093.5625,0,0,0.0,0.0,3.0
1625451094.03125,0,0,0.0,0.0,3.0
1625451094.5,0,0,11.194803395796118,0.0,3.0
1625451094.96875,0,0,0.0,0.0,3.0
1625451095.4375,0,0,10.913306378341787,0.0,3.0
1625451095.90625,0,0,15.29958919864417,0.0,3.0
1625451096.375,0,0,-1.6594677484637428,0.0,3.0
1625451096.84375,0,0,8.967305286063949,0.0,3.0
1625451097.3125,0,0,0.0,0.0,3.0
1625451097.78125,0,0,11.248765951014414,0.0,3.0
1625451098.25,0,0,16.058546049186244,0.0,3.0
1625451098.71875,0,0,0.0,0.0,3.0
1625451099.1875,0,0,8.397564230025104,0.0,3.0
1625451099.65625,0,0,0.0,0.0,3.0
1625451100.125,0,0,10.350907376832923,0.0,3.0
1625451100.59375,0,0,0.0,0.0,3.0
1625451101.0625,0,0,0.0,0.0,3.0
1625451101.53125,0,0,12.28332980335084,0.0,3.0
1625451102.0,0,0,0.0,0.0,3.0
1625451102.46875,0,0,14.023160424819855,0.0,3.0
1625451102.9375,0,0,0.0,0.0,3.0
1625451103.40625,0,0,11.627530468610706,0.0,3.0
1625451103.875,0,0,9.517525391896033,0.0,3.0
1625451104.34375,0,0,0.0,0.0,3.0
1625451104.8125,0,0,10.86190517699251,0.0,3.0
1625451105.28125,0,0,0.0,0.0,3.0
1625451105.75,0,0,0.0,0.0,3.0
1625451106.21875,0,0,12.76656786951437,0.0,3.0
1625451106.6875,0,0,0.0,0.0,3.0
1625451107.15625,0,0,12.459420415209438,0.0,3.0
1625451107.625,0,0,14.200845195083739,0.0,3.0
1625451108.09375,0,0,0.0,0.0,3.0
1625451108.5625,0,0,12.53571165771636,0.0,3.0
1625451109.03125,0,0,0.0,0.0,3.0
1625451109.5,0,0,13.268058482613544,0.0,3.0
1625451109.96875,0,0,21.859099636104435,0.0,3.0
1625451110.4375,0,0,0.0,0.0,3.0
1625451110.90625,0,0,14.19380758269395,0.0,3.0
1625451111.375,0,0,14.954679702223647,0.0,3.0
1625451111.84375,0,0,0.0,0.0,3.0
1625451112.3125,0,0,12.168786857035512,0.0,3.0
1625451112.78125,0,0,0.0,0.0,3.0
1625451113.25,0,0,15.585519049896856,0.0,3.0
1625451113.71875,0,0,12.815020602649302,0.0,3.0
1625451114.1875,0,0,0.0,0.0,3.0
1625451114.65625,0,0,21.350363135008973,0.0,3.0
1625451115.125,0,0,0.0,0.0,3.0
1625451115.59375,0,0,0.0,0.0,3.0
1625451116.0625,0,0,19.193161554397122,0.0,3.0
1625451116.53125,0,0,0.0,0.0,3.0
1625451117.0,0,0,13.038883488206325,0.0,3.0
1625451117.46875,0,0,8.932150219447406,0.0,3.0
1625451117.9375,0,0,0.0,0.0,3.0
1625451118.40625,0,0,14.137484006195926,0.0,3.0
1625451118.875,0,0,0.0,0.0,3.0
1625451119.34375,0,0,15.311509953593736,0.0,3.0
1625451119.8125,0,0,12.862652855016082,0.0,3.0
1625451120.28125,0,0,0.0,0.0,3.0
1625451120.75,0,0,15.852012527513262,0.0,3.0
1625451121.21875,0,0,0.0,0.0,3.0
1625451121.6875,0,0,10.874204560301399,0.0,3.0
1625451122.15625,0,0,13.030899650696936,0.0,3.0
1625451122.625,0,0,0.0,0.0,3.0
1625451123.09375,0,0,14.190908266379134,0.0,3.0
1625451123.5625,0,0,10.611563191416451,0.0,3.0
1625451124.03125,0,0,0.0,0.0,3.0
1625451124.5,0,0,11.61723581532166,0.0,3.0
1625451124.96875,0,0,0.0,0.0,3.0
1625451125.4375,0,0,0.0,0.0,3.0
1625451125.90625,0,0,10.659987148442164,0.0,3.0
1625451126.375,0,0,0.0,0.0,3.0
1625451126.84375,0,0,11.233224685493685,0.0,3.0
1625451127.3125,0,0,11.444290709979326,0.0,3.0
1625451127.78125,0,0,0.0,0.0,3.0
1625451128.25,0,0,12.626978302085053,0.0,3.0
1625451128.71875,0,0,0.0,0.0,3.0
1625451129.1875,0,0,0.0,0.0,3.0
1625451129.65625,0,0,28.431362866144664,0.0,3.0
1625451130.125,0,0,13.383001402965515,0.0,3.0
1625451130.59375,0,0,0.0,0.0,3.0
1625451131.0625,0,0,11.394533053764766,0.0,3.0
1625451131.53125,0,0,0.0,0.0,3.0
1625451132.0,0,0,9.679617825417056,0.0,3.0
1625451132.46875,0,0,13.694384284902066,0.0,3.0
1625451132.9375,0,0,0.0,0.0,3.0
1625451133.40625,0,0,12.84503063324688,0.0,3.0
1625451133.875,0,0,14.70847247547354,0.0,3.0
1625451134.34375,0,0,-6.41263447286205,0.0,3.0
1625451134.8125,0,0,16.361091927241944,0.0,3.0
1625451135.28125,0,0,0.0,0.0,3.0
1625451135.75,0,0,0.0,0.0,3.0
1625451136.21875,0,0,13.140370572384107,0.0,3.0
1625451136.6875,0,0,0.0,0.0,3.0
1625451137.15625,0,0,14.082765702262138,0.0,3.0
1625451137.625,0,0,11.771481921598227,0.0,3.0
1625451138.09375,0,0,0.0,0.0,3.0
1625451138.5625,0,0,14.034823625499032,0.0,3.0
1625451139.03125,0,0,0.0,0.0,3.0
1625451139.5,0,0,10.73515182833969,0.0,3.0
1625451139.96875,0,0,11.976356211732055,0.0,3.0
1625451140.4375,0,0,0.0,0.0,3.0
1625451140.90625,0,0,12.967831920776499,0.0,3.0
1625451141.375,0,0,16.582709846411266,0.0,3.0
1625451141.84375,0,0,0.0,0.0,3.0
1625451142.3125,0,0,13.488961871597137,0.0,3.0
1625451142.78125,0,0,0.0,0.0,3.0
1625451143.25,0,0,12.80414799421139,0.0,3.0
1625451143.71875,0,0,13.258036422341346,0.0,3.0
1625451144.1875,0,0,0.0,0.0,3.0
1625451144.65625,0,0,15.057491248967226,0.0,3.0
1625451145.125,0,0,0.0,0.0,3.0
1625451145.59375,0,0,10.720889755375593,0.0,3.0
1625451146.0625,0,0,11.192748336811459,0.0,3.0
1625451146.53125,0,0,0.0,0.0,3.0
1625451147.0,0,0,15.444512208981676,0.0,3.0
1625451147.46875,0,0,14.162251516381472,0.0,3.0
1625451147.9375,0,0,0.0,0.0,3.0
1625451148.40625,0,0,15.738665857052743,0.0,3.0
1625451148.875,0,0,0.0,0.0,3.0
1625451149.34375,0,0,11.043448207796947,0.0,3.0
1625451149.8125,0,0,0.0,0.0,3.0
1625451150.28125,0,0,9.978781594622198,0.0,3.0
1625451150.75,0,0,13.115003883778222,0.0,3.0
1625451151.21875,0,0,0.0,0.0,3.0
1625451151.6875,0,0,18.639502626059553,0.0,3.0
1625451152.15625,0,0,0.0,0.0,3.0
1625451152.625,0,0,10.701299106002708,0.0,3.0
1625451153.09375,0,0,12.695033885009236,0.0,3.0
1625451153.5625,0,0,-0.07323487125053636,0.0,3.0
1625451154.03125,0,0,10.790976133647042,0.0,3.0
1625451154.5,0,0,0.0,0.0,3.0
1625451154.96875,0,0,10.919910656137985,0.0,3.0
1625451155.4375,0,0,15.135371934666342,0.0,3.0
1625451155.90625,0,0,0.0,0.0,3.0
1625451156.375,0,0,11.798884430956521,0.0,3.0
1625451156.84375,0,0,0.0,0.0,3.0
1625451157.3125,0,0,14.846596208641309,0.0,3.0
1625451157.78125,0,0,10.91044336378481,0.0,3.0
1625451158.25,0,0,0.0,0.0,3.0
1625451158.71875,0,0,10.714058770025146,0.0,3.0
1625451159.1875,0,0,13.206439979628755,0.0,3.0
1625451159.65625,0,0,0.0,0.0,3.0
1625451160.125,0,0,16.013943843902805,0.0,3.0
1625451160.59375,0,0,0.0,0.0,3.0
1625451161.0625,0,0,8.425316219301198,0.0,3.0
1625451161.53125,0,0,12.432062926230536,0.0,3.0
1625451162.0,0,0,0.0,0.0,3.0
1625451162.46875,0,0,11.908516328762044,0.0,3.0
1625451162.9375,0,0,18.211878839747804,0.0,3.0
1625451163.40625,0,0,0.0,0.0,3.0
1625451163.875,0,0,14.810663622348894,0.0,3.0
1625451164.34375,0,0,12.700770332218317,0.0,3.0
1625451164.8125,0,0,4.568732001027711,0.0,3.0
1625451165.28125,0,0,13.778398871623056,0.0,3.0
1625451165.75,0,0,0.0,0.0,3.0
1625451166.21875,0,0,14.04823673943046,0.0,3.0
1625451166.6875,0,0,0.0,0.0,3.0
1625451167.15625,0,0,0.0,0.0,3.0
1625451167.625,0,0,15.350359121213186,0.0,3.0
1625451168.09375,0,0,0.0,0.0,3.0
1625451168.5625,0,0,11.587094885037938,0.0,3.0
1625451169.03125,0,0,20.1025140418784,0.0,3.0
1625451169.5,0,0,0.0,0.0,3.0
1625451169.96875,0,0,12.339266580828397,0.0,3.0
1625451170.4375,0,0,15.809244917009897,0.0,3.0
1625451170.90625,0,0,0.0,0.0,3.0
1625451171.375,0,0,11.075028368529365,0.0,3.0
1625451171.84375,0,0,0.0,0.0,3.0
1625451172.3125,0,0,0.0,0.0,3.0
1625451172.78125,0,0,15.431821777250462,0.0,3.0
1625451173.25,0,0,0.0,0.0,3.0
1625451173.71875,0,0,0.0,0.0,3.0
1625451174.1875,0,0,18.40164408655363,0.0,3.0
1625451174.65625,0,0,0.0,0.0,3.0
1625451175.125,0,0,12.040623829399317,0.0,3.0
1625451175.59375,0,0,15.06264924839202,0.0,3.0
1625451176.0625,0,0,0.0,0.0,3.0
1625451176.53125,0,0,13.634062745436282,0.0,3.0
1625451177.0,0,0,0.0,0.0,3.0
1625451177.46875,0,0,7.829459781723459,0.0,3.0
1625451177.9375,0,0,13.175014089378175,0.0,3.0
1625451178.40625,0,0,0.0,0.0,3.0
1625451178.875,0,0,11.553551715280244,0.0,3.0
1625451179.34375,0,0,0.0,0.0,3.0
1625451179.8125,0,0,12.548957735210148,0.0,3.0
1625451180.28125,0,0,9.111061133555253,0.0,3.0
1625451180.75,0,0,0.0,0.0,3.0
1625451181.21875,0,0,10.303427468011117,0.0,3.0
1625451181.6875,0,0,11.952847563785712,0.0,3.0
1625451182.15625,0,0,0.0,0.0,3.0
1625451182.625,0,0,11.504896355978085,0.0,3.0
1625451183.09375,0,0,11.85167960583383,0.0,3.0
1625451183.5625,0,0,8.13653480598292,0.0,3.0
1625451184.03125,0,0,15.276783662419215,0.0,3.0
1625451184.5,0,0,0.0,0.0,3.0
1625451184.96875,0,0,14.66261591393261,0.0,3.0
1625451185.4375,0,0,13.715746334358105,0.0,3.0
1625451185.90625,0,0,0.0,0.0,3.0
1625451186.375,0,0,13.180090436989511,0.0,3.0
1625451186.84375,0,0,18.781122818290974,0.0,3.0
1625451187.3125,0,0,0.0,0.0,3.0
1625451187.78125,0,0,16.984114662236042,0.0,3.0
1625451188.25,0,0,0.0,0.0,3.0
1625451188.71875,0,0,17.441555151521648,0.0,3.0
1625451189.1875,0,0,0.0,0.0,3.0
1625451189.65625,0,0,0.0,0.0,3.0
1625451190.125,0,0,13.227384361512607,0.0,3.0
1625451190.59375,0,0,0.0,0.0,3.0
1625451191.0625,0,0,13.368569449068222,0.0,3.0
1625451191.53125,0,0,12.699353741501278,0.0,3.0
1625451192.0,0,0,0.0,0.0,3.0
1625451192.46875,0,0,16.626342922390645,0.0,3.0
1625451192.9375,0,0,0.0,0.0,3.0
1625451193.40625,0,0,14.893461830911775,0.0,3.0
1625451193.875,0,0,17.133153182861086,0.0,3.0
1625451194.34375,0,0,0.0,0.0,3.0
1625451194.8125,0,0,13.008123389379701,0.0,3.0
1625451195.28125,0,0,0.0,0.0,3.0
1625451195.75,0,0,15.037420317222061,0.0,3.0
1625451196.21875,0,0,13.243581234734023,0.0,3.0
1625451196.6875,0,0,0.0,0.0,3.0
1625451197.15625,0,0,15.883999692961668,0.0,3.0
1625451197.625,0,0,0.0,0.0,3.0
1625451198.09375,0,0,13.432064990696999,0.0,3.0
1625451198.5625,0,0,16.123251617303985,0.0,3.0
1625451199.03125,0,0,0.0,0.0,3.0
1625451199.5,0,0,16.56020956446165,0.0,3.0
1625451199.96875,0,0,0.0,0.0,3.0
1625451200.4375,0,0,12.296111804751073,0.0,3.0
1625451200.90625,0,0,11.262703003247681,0.0,3.0
1625451201.375,0,0,0.0,0.0,3.0
1625451201.84375,0,0,15.51020002501087,0.0,3.0
1625451202.3125,0,0,20.245175538511095,0.0,3.0
1625451202.78125,0,0,0.0,0.0,3.0
1625451203.25,0,0,15.644350881410828,0.0,3.0
1625451203.71875,0,0,13.460668379453411,0.0,3.0
1625451204.1875,0,0,0.0,0.0,3.0
1625451204.65625,0,0,14.145139209129912,0.0,3.0
1625451205.125,0,0,9.40235496586396,0.0,3.0
1625451205.59375,0,0,0.0,0.0,3.0
1625451206.0625,0,0,15.40473184343843,0.0,3.0
1625451206.53125,0,0,10.368239264197822,0.0,3.0
1625451207.0,0,0,0.0,0.0,3.0
1625451207.46875,0,0,13.111127498090696,0.0,3.0
1625451207.9375,0,0,0.0,0.0,3.0
1625451208.40625,0,0,0.0,0.0,3.0
1625451208.875,0,0,13.562333913855724,0.0,3.0
1625451209.34375,0,0,0.0,0.0,3.0
1625451209.8125,0,0,11.882568362184745,0.0,3.0
1625451210.28125,0,0,7.72207824950346,0.0,3.0
1625451210.75,0,0,0.0,0.0,3.0
1625451211.21875,0,0,14.291449633327703,0.0,3.0
1625451211.6875,0,0,0.0,0.0,3.0
1625451212.15625,0,0,0.0,0.0,3.0
1625451212.625,0,0,12.983268859732187,0.0,3.0
1625451213.09375,0,0,0.0,0.0,3.0
1625451213.5625,0,0,12.020025728776682,0.0,3.0
1625451214.03125,0,0,11.652340433023435,0.0,3.0
1625451214.5,0,0,0.0,0.0,3.0
1625451214.96875,0,0,13.840208072314246,0.0,3.0
