timestamp,mean_pulse_rate,pulse_rate_std,mean_pulse_amplitude,pulse_amplitude_std,block
1628539894.71875,0,0,0.8767776766902492,0.0,1.0
1628539895.1875,0,0,-62.72956528160639,0.0,1.0
1628539895.65625,0,0,401.7816947005252,0.0,1.0
1628539896.125,0,0,45.11053026403216,0.0,1.0
1628539896.59375,0,0,22.35708730984506,0.0,1.0
1628539897.0625,0,0,254.66599282554066,0.0,1.0
1628539897.53125,0,0,0.0,0.0,1.0
1628539898.0,0,0,43.474445244571704,0.0,1.0
1628539898.46875,0,0,25.43797289899085,0.0,1.0
1628539898.9375,0,0,0.0,0.0,1.0
1628539899.40625,0,0,0.0,0.0,1.0
1628539899.875,0,0,0.0,0.0,1.0
1628539900.34375,0,0,-1.5239206193846293,0.0,1.0
1628539900.8125,0,0,1.9803383211606898,0.0,1.0
1628539901.28125,0,0,35.48074433654026,0.0,1.0
1628539901.75,0,0,15.698316871304057,0.0,1.0
1628539902.21875,0,0,0.0,0.0,1.0
1628539902.6875,0,0,18.62911135239966,0.0,1.0
1628539903.15625,0,0,18.744854430352518,0.0,1.0
1628539903.625,0,0,19.050147271757943,0.0,1.0
1628539904.09375,0,0,14.41858669852885,0.0,1.0
1628539904.5625,0,0,0.0,0.0,1.0
1628539905.03125,0,0,30.891456548530243,0.0,1.0
1628539905.5,0,0,0.0,0.0,1.0
1628539905.96875,0,0,18.432629012374868,0.0,1.0
1628539906.4375,0,0,0.0,0.0,1.0
1628539906.90625,0,0,13.974279573996043,0.0,1.0
1628539907.375,0,0,0.0,0.0,1.0
1628539907.84375,0,0,14.776802542753348,0.0,1.0
1628539908.3125,0,0,12.427520455642911,0.0,1.0
1628539908.78125,0,0,12.171140256855743,0.0,1.0
1628539909.25,0,0,13.657537006313103,0.0,1.0
1628539909.71875,0,0,0.0,0.0,1.0
1628539910.1875,0,0,16.09060857403623,0.0,1.0
1628539910.65625,0,0,-0.47994686611614645,0.0,1.0
1628539911.125,0,0,0.0,0.0,1.0
1628539911.59375,0,0,16.512464075827065,0.0,1.0
1628539912.0625,0,0,15.319778574071337,0.0,1.0
1628539912.53125,0,0,27.57106948789645,0.0,1.0
1628539913.0,0,0,0.0,0.0,1.0
1628539913.46875,0,0,15.312941859266022,0.0,1.0
1628539913.9375,0,0,0.0,0.0,1.0
1628539914.40625,0,0,33.38705901003091,0.0,1.0
1628539914.875,0,0,9.412198854027535,0.0,1.0
1628539915.34375,0,0,11.488584985472995,0.0,1.0
1628539915.8125,0,0,10.831620793335137,0.0,1.0
1628539916.28125,0,0,53.48601015010243,0.0,1.0
1628539916.75,0,0,5.295927738922762,0.0,1.0
1628539917.21875,0,0,13.3308672114109,0.0,1.0
1628539917.6875,0,0,0.0,0.0,1.0
1628539918.15625,0,0,0.0,0.0,1.0
1628539918.625,0,0,0.0,0.0,1.0
1628539919.09375,0,0,9.288280063671252,0.0,1.0
1628539919.5625,0,0,0.0,0.0,1.0
1628539920.03125,0,0,1.904505854372359,0.0,1.0
1628539920.5,0,0,39.72740308275624,0.0,1.0
1628539920.96875,0,0,11.811737580959951,0.0,1.0
1628539921.4375,0,0,15.158190465966888,0.0,1.0
1628539921.90625,0,0,0.0,0.0,1.0
1628539922.375,0,0,71.03749948413126,0.0,1.0
1628539922.84375,0,0,-36.33046692060334,0.0,1.0
1628539923.3125,0,0,34.733461696733386,0.0,1.0
1628539923.78125,0,0,0.0,0.0,1.0
1628539924.25,0,0,10.744446113637682,0.0,1.0
1628539924.71875,0,0,-9.159806549174936,0.0,1.0
1628539925.1875,0,0,50.21456742075759,0.0,1.0
1628539925.65625,0,0,13.838604773612554,0.0,1.0
1628539926.125,0,0,0.0,0.0,1.0
1628539926.59375,0,0,23.342877363177582,0.0,1.0
1628539927.0625,0,0,6.180889289425691,0.0,1.0
1628539927.53125,0,0,15.081835341673525,0.0,1.0
1628539928.0,0,0,18.48229702204357,0.0,1.0
1628539928.46875,0,0,0.0,0.0,1.0
1628539928.9375,0,0,16.800479687349867,0.0,1.0
1628539929.40625,0,0,12.3272644936558,0.0,1.0
1628539929.875,0,0,0.0,0.0,1.0
1628539930.34375,0,0,7.558913436748404,0.0,1.0
1628539930.8125,0,0,28.75278999700034,0.0,1.0
1628539931.28125,0,0,10.065976722348317,0.0,1.0
1628539931.75,0,0,0.0,0.0,1.0
1628539932.21875,0,0,17.823021302095658,0.0,1.0
1628539932.6875,0,0,0.0,0.0,1.0
1628539933.15625,0,0,12.141066463853356,0.0,1.0
1628539933.625,0,0,12.563675922299753,0.0,1.0
1628539934.09375,0,0,0.0,0.0,1.0
1628539934.5625,0,0,17.68747630518488,0.0,1.0
1628539935.03125,0,0,0.0,0.0,1.0
1628539935.5,0,0,0.0,0.0,1.0
1628539935.96875,0,0,13.884358827812347,0.0,1.0
1628539936.4375,0,0,15.388112773533695,0.0,1.0
1628539936.90625,0,0,13.147466091485217,0.0,1.0
1628539937.375,0,0,0.7732450171693579,0.0,1.0
1628539937.84375,0,0,15.505391483966928,0.0,1.0
1628539938.3125,0,0,0.0,0.0,1.0
1628539938.78125,0,0,40.71929237460377,0.0,1.0
1628539939.25,0,0,18.99349282223467,0.0,1.0
1628539939.71875,0,0,0.0,0.0,1.0
1628539940.1875,0,0,19.60259585928286,0.0,1.0
1628539940.65625,0,0,0.0,0.0,1.0
1628539941.125,0,0,20.708138479028122,0.0,1.0
1628539941.59375,0,0,18.57745339859804,0.0,1.0
1628539942.0625,0,0,0.0,0.0,1.0
1628539942.53125,0,0,28.130750650765332,0.0,1.0
1628539943.0,0,0,31.054226388521005,0.0,1.0
1628539943.46875,0,0,8.555379126940768,0.0,1.0
1628539943.9375,0,0,20.00550674170808,0.0,1.0
1628539944.40625,0,0,18.14315621056729,0.0,1.0
1628539944.875,0,0,-3.1973920090000676,0.0,1.0
1628539945.34375,0,0,0.0,0.0,1.0
1628539945.8125,0,0,19.295590346987957,0.0,1.0
1628539946.28125,0,0,0.0,0.0,1.0
1628539946.75,0,0,28.097580855536407,0.0,1.0
1628539947.21875,0,0,-4.864452075900693,0.0,1.0
1628539947.6875,0,0,14.589364280844435,0.0,1.0
1628539948.15625,0,0,13.870883899002408,0.0,1.0
1628539948.625,0,0,12.493167435476613,0.0,1.0
1628539949.09375,0,0,28.963404536517206,0.0,1.0
1628539949.5625,0,0,0.0,0.0,1.0
1628539950.03125,0,0,16.64882329390769,0.0,1.0
1628539950.5,0,0,0.0,0.0,1.0
1628539950.96875,0,0,22.756868462370672,0.0,1.0
1628539951.4375,0,0,0.0,0.0,1.0
1628539951.90625,0,0,35.02801352185491,0.0,1.0
1628539952.375,0,0,0.0,0.0,1.0
1628539952.84375,0,0,12.704163638336283,0.0,1.0
1628539953.3125,0,0,-3.822836540927918,0.0,1.0
1628539953.78125,0,0,21.364846189289224,0.0,1.0
1628539954.25,0,0,18.6897420491119,0.0,1.0
1628539954.71875,0,0,0.0,0.0,1.0
1628539955.1875,0,0,16.73009299697895,0.0,1.0
1628539955.65625,0,0,0.0,0.0,1.0
1628539956.125,0,0,14.94674319889475,0.0,1.0
1628539956.59375,0,0,13.879130768960279,0.0,1.0
1628539957.0625,0,0,13.105556488756134,0.0,1.0
1628539957.53125,0,0,11.689848902829016,0.0,1.0
1628539958.0,0,0,0.0,0.0,1.0
1628539958.46875,0,0,0.0,0.0,1.0
1628539958.9375,0,0,15.991916667554591,0.0,1.0
1628539959.40625,0,0,15.788988005609442,0.0,1.0
1628539959.875,0,0,0.0,0.0,1.0
1628539960.34375,0,0,13.95973722285279,0.0,1.0
1628539960.8125,0,0,0.0,0.0,1.0
1628539961.28125,0,0,13.82124312817073,0.0,1.0
1628539961.75,0,0,9.794823749635636,0.0,1.0
1628539962.21875,0,0,9.224250441958842,0.0,1.0
1628539962.6875,0,0,12.120166109232501,0.0,1.0
1628539963.15625,0,0,0.0,0.0,1.0
1628539963.625,0,0,13.975897301490035,0.0,1.0
1628539964.09375,0,0,13.269700955178298,0.0,1.0
1628539964.5625,0,0,12.77038987688188,0.0,1.0
1628539965.03125,0,0,17.38011341097953,0.0,1.0
1628539965.5,0,0,0.0,0.0,1.0
1628539965.96875,0,0,17.05119726005942,0.0,1.0
1628539966.4375,0,0,0.0,0.0,1.0
1628539966.90625,0,0,16.87348760402724,0.0,1.0
1628539967.375,0,0,0.0,0.0,1.0
1628539967.84375,0,0,0.0,0.0,1.0
1628539968.3125,0,0,27.105037641873174,0.0,1.0
1628539968.78125,0,0,0.0,0.0,1.0
1628539969.25,0,0,11.625910131637026,0.0,1.0
1628539969.71875,0,0,17.741120287905154,0.0,1.0
1628539970.1875,0,0,11.418472755645316,0.0,1.0
1628539970.65625,0,0,10.67423725916144,0.0,1.0
1628539971.125,0,0,8.63134033977179,0.0,1.0
1628539971.59375,0,0,14.769503121440616,0.0,1.0
1628539972.0625,0,0,14.180368043107531,0.0,1.0
1628539972.53125,0,0,0.0,0.0,1.0
1628539973.0,0,0,10.37026108621126,0.0,1.0
1628539973.46875,0,0,18.367788447438553,0.0,1.0
1628539973.9375,0,0,38.26982603333497,0.0,1.0
1628539974.40625,0,0,19.39010056177288,0.0,1.0
1628539974.875,0,0,0.0,0.0,1.0
1628539975.34375,0,0,18.956978391853074,0.0,1.0
1628539975.8125,0,0,3.3945000575725572,0.0,1.0
1628539976.28125,0,0,14.609971213676852,0.0,1.0
1628539976.75,0,0,13.257764585129578,0.0,1.0
1628539977.21875,0,0,0.0,0.0,1.0
1628539977.6875,0,0,9.521570155280058,0.0,1.0
1628539978.15625,0,0,38.49973611859894,0.0,1.0
1628539978.625,0,0,10.94217932741749,0.0,1.0
1628539979.09375,0,0,0.0,0.0,1.0
1628539979.5625,0,0,9.901418576788465,0.0,1.0
1628539980.03125,0,0,22.49580934343824,0.0,1.0
1628539980.5,0,0,3.260386669049846,0.0,1.0
1628539980.96875,0,0,8.497427626192744,0.0,1.0
1628539981.4375,0,0,0.0,0.0,1.0
1628539981.90625,0,0,76.47293363359539,0.0,1.0
1628539982.375,0,0,0.0,0.0,1.0
1628539982.84375,0,0,17.562137842497165,0.0,1.0
1628539983.3125,0,0,0.0,0.0,1.0
1628539983.78125,0,0,1.949630440881056,0.0,1.0
1628539984.25,0,0,30.331697755567962,0.0,1.0
1628539984.71875,0,0,-14.689725947724291,0.0,1.0
1628539985.1875,0,0,15.9322591638031,0.0,1.0
1628539985.65625,0,0,0.0,0.0,1.0
1628539986.125,0,0,8.71225864027728,0.0,1.0
1628539986.59375,0,0,17.42547915304541,0.0,1.0
1628539987.0625,0,0,-4.989885199085592,0.0,1.0
1628539987.53125,0,0,15.430989402474546,0.0,1.0
1628539988.0,0,0,0.0,0.0,1.0
1628539988.46875,0,0,71.84255339992504,0.0,1.0
1628539988.9375,0,0,7.775528915204453,0.0,1.0
1628539989.40625,0,0,11.939744160723423,0.0,1.0
1628539989.875,0,0,-0.6030653308956229,0.0,1.0
1628539990.34375,0,0,66.2954137566573,0.0,1.0
1628539990.8125,0,0,2.201741700534058,0.0,1.0
1628539991.28125,0,0,0.0,0.0,1.0
1628539991.75,0,0,19.785445068596168,0.0,1.0
1628539992.21875,0,0,33.72244513726316,0.0,1.0
1628539992.6875,0,0,18.69909870029824,0.0,1.0
1628539993.15625,0,0,14.642152057752705,0.0,1.0
1628539993.625,0,0,0.0,0.0,1.0
1628539994.09375,0,0,48.61436987224955,0.0,1.0
1628539994.5625,0,0,8.532280404587066,0.0,1.0
1628539995.03125,0,0,9.871634478043031,0.0,1.0
1628539995.5,0,0,13.795426344951398,0.0,1.0
1628539995.96875,0,0,3.163834208614005,0.0,1.0
1628539996.4375,0,0,41.96882141112929,0.0,1.0
1628539996.90625,0,0,18.446906762810062,0.0,1.0
1628539997.375,0,0,6.484127027447367,0.0,1.0
1628539997.84375,0,0,3.6006202559412315,0.0,1.0
1628539998.3125,0,0,100.41808901137779,0.0,1.0
1628539998.78125,0,0,-17.43009019376881,0.0,1.0
1628539999.25,0,0,9.442641384526157,0.0,1.0
1628539999.71875,0,0,-27.774455835334287,0.0,1.0
1628540000.1875,0,0,136.91974729176775,0.0,1.0
1628540000.65625,0,0,14.695934114260957,0.0,1.0
1628540001.125,0,0,-18.074282446471805,0.0,1.0
1628540001.59375,0,0,17.0332021325991,0.0,1.0
1628540002.0625,0,0,88.20794934164212,0.0,1.0
1628540002.53125,0,0,-24.66785466507413,0.0,1.0
1628540003.0,0,0,0.0,0.0,1.0
1628540003.46875,0,0,16.05047665730793,0.0,1.0
1628540003.9375,0,0,17.35118236294321,0.0,1.0
1628540004.40625,0,0,0.0,0.0,1.0
1628540004.875,0,0,35.988238764743265,0.0,1.0
1628540005.34375,0,0,118.15809383109908,0.0,1.0
1628540005.8125,0,0,-25.702099726128846,0.0,1.0
1628540006.28125,0,0,93.40900737270931,0.0,1.0
1628540006.75,0,0,0.0,0.0,1.0
1628540007.21875,0,0,7.035384468780398,0.0,1.0
1628540007.6875,0,0,74.82245774256282,0.0,1.0
1628540008.15625,0,0,11.78624386067003,0.0,1.0
1628540008.625,0,0,0.0,0.0,1.0
1628540009.09375,0,0,13.176648511323975,0.0,1.0
1628540009.5625,0,0,3.3649347394366393,0.0,1.0
1628540010.03125,0,0,79.28581561662939,0.0,1.0
1628540010.5,0,0,-7.501886341598218,0.0,1.0
1628540010.96875,0,0,28.82861748475684,0.0,1.0
1628540011.4375,0,0,0.0,0.0,1.0
1628540011.90625,0,0,56.31485211734374,0.0,1.0
1628540012.375,0,0,0.0,0.0,1.0
1628540012.84375,0,0,23.229376547918193,0.0,1.0
1628540013.3125,0,0,-5.652422677504359,0.0,1.0
1628540013.78125,0,0,42.69548309839942,0.0,1.0
1628540014.25,0,0,9.888377464807753,0.0,1.0
1628540014.71875,0,0,12.135149436223523,0.0,1.0
1628540015.1875,0,0,16.704797069702654,0.0,1.0
1628540015.65625,0,0,19.16252815218116,0.0,1.0
1628540016.125,0,0,0.0,0.0,1.0
1628540016.59375,0,0,16.266154859257824,0.0,1.0
1628540017.0625,0,0,9.301664035184345,0.0,1.0
1628540017.53125,0,0,14.521630943608091,0.0,1.0
1628540018.0,0,0,13.868931077809961,0.0,1.0
1628540018.46875,0,0,0.0,0.0,1.0
1628540018.9375,0,0,12.29041352609563,0.0,1.0
1628540019.40625,0,0,8.570458947510621,0.0,1.0
1628540019.875,0,0,5.474066565504741,0.0,1.0
1628540020.34375,0,0,21.863670557317455,0.0,1.0
1628540020.8125,0,0,0.0,0.0,1.0
1628540021.28125,0,0,13.595157439971716,0.0,1.0
1628540021.75,0,0,14.93966577228414,0.0,1.0
1628540022.21875,0,0,13.216390314480954,0.0,1.0
1628540022.6875,0,0,16.4832439437539,0.0,1.0
1628540023.15625,0,0,1.3579830350453594,0.0,1.0
1628540023.625,0,0,22.651148058976958,0.0,1.0
1628540024.09375,0,0,0.0,0.0,1.0
1628540024.5625,0,0,22.510455440506945,0.0,1.0
1628540025.03125,0,0,0.0,0.0,1.0
1628540025.5,0,0,0.0,0.0,1.0
1628540025.96875,0,0,22.769684033118967,0.0,1.0
1628540026.4375,0,0,10.397905021486112,0.0,1.0
1628540026.90625,0,0,5.232672359634023,0.0,1.0
1628540027.375,0,0,12.391456645695234,0.0,1.0
1628540027.84375,0,0,15.88937188588608,0.0,1.0
1628540028.3125,0,0,0.0,0.0,1.0
1628540028.78125,0,0,24.401326703393146,0.0,1.0
1628540029.25,0,0,0.0,0.0,1.0
1628540029.71875,0,0,11.814700951403623,0.0,1.0
1628540030.1875,0,0,0.0,0.0,1.0
1628540030.65625,0,0,21.467973527370035,0.0,1.0
1628540031.125,0,0,27.901394785343022,0.0,1.0
1628540031.59375,0,0,0.0,0.0,1.0
1628540032.0625,0,0,15.374107010308492,0.0,1.0
1628540032.53125,0,0,14.9906341411733,0.0,1.0
1628540033.0,0,0,6.781722835929382,0.0,1.0
1628540033.46875,0,0,21.009178999832436,0.0,1.0
1628540033.9375,0,0,15.675533336182841,0.0,1.0
1628540034.40625,0,0,20.4133698744444,0.0,1.0
1628540034.875,0,0,25.892073298474763,0.0,1.0
1628540035.34375,0,0,5.543377395584512,0.0,1.0
1628540035.8125,0,0,0.0,0.0,1.0
1628540036.28125,0,0,12.264510175915797,0.0,1.0
1628540036.75,0,0,0.0,0.0,1.0
1628540037.21875,0,0,45.5649341364546,0.0,1.0
1628540037.6875,0,0,9.048083882970506,0.0,1.0
1628540038.15625,0,0,42.87949945788803,0.0,1.0
1628540038.625,0,0,4.374699264838338,0.0,1.0
1628540039.09375,0,0,10.74247164339564,0.0,1.0
1628540039.5625,0,0,10.717225648739161,0.0,1.0
1628540040.03125,0,0,10.685947402711735,0.0,1.0
1628540040.5,0,0,16.407900391772767,0.0,1.0
1628540040.96875,0,0,35.277722042265424,0.0,1.0
1628540041.4375,0,0,6.129251506473035,0.0,1.0
1628540041.90625,0,0,10.817060458871746,0.0,1.0
1628540042.375,0,0,0.0,0.0,1.0
1628540042.84375,0,0,90.57383548947963,0.0,1.0
1628540043.3125,0,0,20.192511189304238,0.0,1.0
1628540043.78125,0,0,16.67848586796233,0.0,1.0
1628540044.25,0,0,10.200263216173628,0.0,1.0
1628540044.71875,0,0,48.60782253796322,0.0,1.0
1628540045.1875,0,0,-1.205136381822754,0.0,1.0
1628540045.65625,0,0,14.140117283094623,0.0,1.0
1628540046.125,0,0,16.189289582547097,0.0,1.0
1628540046.59375,0,0,8.571568261637097,0.0,1.0
1628540047.0625,0,0,0.0,0.0,1.0
1628540047.53125,0,0,139.27816587789172,0.0,1.0
1628540048.0,0,0,-41.65536711037123,0.0,1.0
1628540048.46875,0,0,13.047747518174885,0.0,1.0
1628540048.9375,0,0,108.19723047299186,0.0,1.0
1628540049.40625,0,0,-3.0462982787970794,0.0,1.0
1628540049.875,0,0,10.828242967377234,0.0,1.0
1628540050.34375,0,0,0.0,0.0,1.0
1628540050.8125,0,0,122.24364381561688,0.0,1.0
1628540051.28125,0,0,0.0,0.0,1.0
1628540051.75,0,0,15.40557388221096,0.0,1.0
1628540052.21875,0,0,10.606541083658504,0.0,1.0
1628540052.6875,0,0,0.0,0.0,1.0
1628540053.15625,0,0,79.11638965283194,0.0,1.0
1628540053.625,0,0,-16.97830060898143,0.0,1.0
1628540054.09375,0,0,-8.069148052196434,0.0,1.0
1628540054.5625,0,0,0.0,0.0,1.0
1628540055.03125,0,0,7.134241498149029,0.0,1.0
1628540055.5,0,0,23.23964482435529,0.0,1.0
1628540055.96875,0,0,0.0,0.0,1.0
1628540056.4375,0,0,120.47864040117875,0.0,1.0
1628540056.90625,0,0,-34.74778191597234,0.0,1.0
1628540057.375,0,0,29.529835841992405,0.0,1.0
1628540057.84375,0,0,13.440018955031997,0.0,1.0
1628540058.3125,0,0,7.530261527546943,0.0,1.0
1628540058.78125,0,0,16.024298962981142,0.0,1.0
1628540059.25,0,0,0.0,0.0,1.0
1628540059.71875,0,0,201.82642627412827,0.0,1.0
1628540060.1875,0,0,0.0,0.0,1.0
1628540060.65625,0,0,158.60299528597307,0.0,1.0
1628540061.125,0,0,-10.809364179515594,0.0,1.0
1628540061.59375,0,0,6.987599924262281,0.0,1.0
1628540062.0625,0,0,2.600214371692848,0.0,1.0
1628540062.53125,0,0,143.20807432976773,0.0,1.0
1628540063.0,0,0,-24.974485602266906,0.0,1.0
1628540063.46875,0,0,-4.1834876409847555,0.0,1.0
1628540063.9375,0,0,17.316882752818774,0.0,1.0
1628540064.40625,0,0,0.0,0.0,1.0
1628540064.875,0,0,142.5975929488012,0.0,1.0
1628540065.34375,0,0,-47.53211318238017,0.0,1.0
1628540065.8125,0,0,21.31797624093282,0.0,1.0
1628540066.28125,0,0,11.820823474737045,0.0,1.0
1628540066.75,0,0,0.0,0.0,1.0
1628540067.21875,0,0,108.28715487643433,0.0,1.0
1628540067.6875,0,0,-18.471510437958806,0.0,1.0
1628540068.15625,0,0,20.138111982938494,0.0,1.0
1628540068.625,0,0,-4.456009278008646,0.0,1.0
1628540069.09375,0,0,135.2441890138986,0.0,1.0
1628540069.5625,0,0,0.0,0.0,1.0
1628540070.03125,0,0,25.03282945616745,0.0,1.0
1628540070.5,0,0,9.239890448260082,0.0,1.0
1628540070.96875,0,0,138.76752925973932,0.0,1.0
1628540071.4375,0,0,-14.54087644900154,0.0,1.0
1628540071.90625,0,0,17.117559138847135,0.0,1.0
1628540072.375,0,0,0.0,0.0,1.0
1628540072.84375,0,0,22.39562049474351,0.0,1.0
1628540073.3125,0,0,0.0,0.0,1.0
1628540073.78125,0,0,10.805124455994493,0.0,1.0
1628540074.25,0,0,0.0,0.0,1.0
1628540074.71875,0,0,11.920024500601226,0.0,1.0
1628540075.1875,0,0,12.308582214162332,0.0,1.0
1628540075.65625,0,0,0.0,0.0,1.0
1628540076.125,0,0,17.30047170920059,0.0,1.0
1628540076.59375,0,0,13.014310316875067,0.0,1.0
1628540077.0625,0,0,11.078594279802646,0.0,1.0
1628540077.53125,0,0,9.61747765318491,0.0,1.0
1628540078.0,0,0,7.325444513553207,0.0,1.0
1628540078.46875,0,0,8.433865549546624,0.0,1.0
1628540078.9375,0,0,12.37556185639846,0.0,1.0
1628540079.40625,0,0,0.0,0.0,1.0
1628540079.875,0,0,15.065680309419795,0.0,1.0
1628540080.34375,0,0,0.0,0.0,1.0
1628540080.8125,0,0,13.618763293126012,0.0,1.0
1628540081.28125,0,0,6.994883655184377,0.0,1.0
1628540081.75,0,0,14.373431894397575,0.0,1.0
1628540082.21875,0,0,13.730326634217663,0.0,1.0
1628540082.6875,0,0,13.779306096977598,0.0,1.0
1628540083.15625,0,0,16.637263811168957,0.0,1.0
1628540083.625,0,0,0.0,0.0,1.0
1628540084.09375,0,0,18.540854327611612,0.0,1.0
1628540084.5625,0,0,10.885885244814432,0.0,1.0
1628540085.03125,0,0,7.299933192788339,0.0,1.0
1628540085.5,0,0,14.311050104372166,0.0,1.0
1628540085.96875,0,0,16.61833852481823,0.0,1.0
1628540086.4375,0,0,13.811327819516244,0.0,1.0
1628540086.90625,0,0,11.695300799516874,0.0,1.0
1628540087.375,0,0,7.1820592473742515,0.0,1.0
1628540087.84375,0,0,8.021963968728556,0.0,1.0
1628540088.3125,0,0,71.5063885969835,0.0,1.0
1628540088.78125,0,0,5.810267089903452,0.0,1.0
1628540089.25,0,0,16.331593783536036,0.0,1.0
1628540089.71875,0,0,19.704047968348952,0.0,1.0
1628540090.1875,0,0,5.277138868659695,0.0,1.0
1628540090.65625,0,0,0.0,0.0,1.0
1628540091.125,0,0,22.333464316784667,0.0,1.0
1628540091.59375,0,0,72.1170513141018,0.0,1.0
1628540092.0625,0,0,-4.739715391484157,0.0,1.0
1628540092.53125,0,0,24.013197561479316,0.0,1.0
1628540093.0,0,0,19.059094031789215,0.0,1.0
1628540093.46875,0,0,80.820994652706,0.0,1.0
1628540093.9375,0,0,0.0,0.0,1.0
1628540094.40625,0,0,16.801651038028073,0.0,1.0
1628540094.875,0,0,12.346961813921077,0.0,1.0
1628540095.34375,0,0,24.572187742656432,0.0,1.0
1628540095.8125,0,0,0.0,0.0,1.0
1628540096.28125,0,0,9.0254558839554,0.0,1.0
1628540096.75,0,0,17.334411932891552,0.0,1.0
1628540097.21875,0,0,0.0,0.0,1.0
1628540097.6875,0,0,86.44278415301423,0.0,1.0
1628540098.15625,0,0,21.36825571596217,0.0,1.0
1628540098.625,0,0,24.94835003249986,0.0,1.0
1628540099.09375,0,0,8.686110367011072,0.0,1.0
1628540099.5625,0,0,57.30147567963906,0.0,1.0
1628540100.03125,0,0,22.752728063667114,0.0,1.0
1628540100.5,0,0,0.0,0.0,1.0
1628540100.96875,0,0,16.99478803233625,0.0,1.0
1628540101.4375,0,0,44.051708936550185,0.0,1.0
1628540101.90625,0,0,2.2807245814443573,0.0,1.0
1628540102.375,0,0,21.642424236450395,0.0,1.0
1628540102.84375,0,0,18.284204347071544,0.0,1.0
1628540103.3125,0,0,2.734479978533266,0.0,1.0
1628540103.78125,0,0,93.69158031444472,0.0,1.0
1628540104.25,0,0,2.5658938502065576,0.0,1.0
1628540104.71875,0,0,27.400632064975483,0.0,1.0
1628540105.1875,0,0,0.0,0.0,1.0
1628540105.65625,0,0,5.4944332439633525,0.0,1.0
1628540106.125,0,0,72.47857991784915,0.0,1.0
1628540106.59375,0,0,15.627067168402519,0.0,1.0
1628540107.0625,0,0,0.0,0.0,1.0
1628540107.53125,0,0,3.6049279511779573,0.0,1.0
1628540108.0,0,0,74.09281659282901,0.0,1.0
1628540108.46875,0,0,4.474180962200089,0.0,1.0
1628540108.9375,0,0,17.28602409947103,0.0,1.0
1628540109.40625,0,0,0.0,0.0,1.0
1628540109.875,0,0,65.19594590607615,0.0,1.0
1628540110.34375,0,0,-11.924485457081078,0.0,1.0
1628540110.8125,0,0,17.94985683276881,0.0,1.0
1628540111.28125,0,0,0.0,0.0,1.0
1628540111.75,0,0,87.86339837772059,0.0,1.0
1628540112.21875,0,0,0.0,0.0,1.0
1628540112.6875,0,0,25.415181525892656,0.0,1.0
1628540113.15625,0,0,16.555341157167543,0.0,1.0
1628540113.625,0,0,0.0,0.0,1.0
1628540114.09375,0,0,-14.169710796910042,0.0,1.0
1628540114.5625,0,0,-10.960386216414266,0.0,1.0
1628540115.03125,0,0,0.0,0.0,1.0
1628540115.5,0,0,0.0,0.0,1.0
1628540115.96875,0,0,-37.869006092624126,0.0,1.0
1628540116.4375,0,0,17.55374861547326,0.0,1.0
1628540116.90625,0,0,0.0,0.0,1.0
1628540117.375,0,0,4.709313475758562,0.0,1.0
1628540117.84375,0,0,37.57326067585052,0.0,1.0
1628540118.3125,0,0,12.321050800937968,0.0,1.0
1628540118.78125,0,0,0.0,0.0,1.0
1628540119.25,0,0,0.0,0.0,1.0
1628540119.71875,0,0,73.10802886574571,0.0,1.0
1628540120.1875,0,0,0.0,0.0,1.0
1628540120.65625,0,0,19.861900923655497,0.0,1.0
1628540121.125,0,0,-3.6343101601426313,0.0,1.0
1628540121.59375,0,0,89.95192218879136,0.0,1.0
1628540122.0625,0,0,0.0,0.0,1.0
1628540122.53125,0,0,17.149937201505523,0.0,1.0
1628540123.0,0,0,18.35197292493569,0.0,1.0
1628540123.46875,0,0,-28.205767767354736,0.0,1.0
1628540123.9375,0,0,87.77513909064992,0.0,1.0
1628540124.40625,0,0,0.0,0.0,1.0
1628540124.875,0,0,16.08084345255953,0.0,1.0
1628540125.34375,0,0,9.253289202785767,0.0,1.0
1628540125.8125,0,0,51.274303828909126,0.0,1.0
1628540126.28125,0,0,0.0,0.0,1.0
1628540126.75,0,0,0.0,0.0,1.0
1628540127.21875,0,0,16.798166636751947,0.0,1.0
1628540127.6875,0,0,0.0,0.0,1.0
1628540128.15625,0,0,72.65831066955262,0.0,1.0
1628540128.625,0,0,0.0,0.0,1.0
1628540129.09375,0,0,19.56621402083334,0.0,1.0
1628540129.5625,0,0,14.460631753231976,0.0,1.0
1628540130.03125,0,0,46.444757411476026,0.0,1.0
1628540130.5,0,0,26.71313148235508,0.0,1.0
1628540130.96875,0,0,15.224284917575412,0.0,1.0
1628540131.4375,0,0,0.0,0.0,1.0
1628540131.90625,0,0,15.461181949227859,0.0,1.0
1628540132.375,0,0,0.0,0.0,1.0
1628540132.84375,0,0,16.33243002941965,0.0,1.0
1628540133.3125,0,0,0.0,0.0,1.0
1628540133.78125,0,0,16.261012424388475,0.0,1.0
1628540134.25,0,0,15.536466251113051,0.0,1.0
1628540134.71875,0,0,0.0,0.0,1.0
1628540135.1875,0,0,9.735610130294267,0.0,1.0
1628540135.65625,0,0,12.232910043384784,0.0,1.0
1628540136.125,0,0,12.98774723755785,0.0,1.0
1628540136.59375,0,0,0.0,0.0,1.0
1628540137.0625,0,0,15.99968846085668,0.0,1.0
1628540137.53125,0,0,12.974083458969877,0.0,1.0
1628540138.0,0,0,13.00083225772811,0.0,1.0
1628540138.46875,0,0,17.614325565290276,0.0,1.0
1628540138.9375,0,0,0.0,0.0,1.0
1628540139.40625,0,0,15.134604428529741,0.0,1.0
1628540139.875,0,0,13.96045922188527,0.0,1.0
1628540140.34375,0,0,0.0,0.0,1.0
1628540140.8125,0,0,19.032925477454818,0.0,1.0
1628540141.28125,0,0,0.0,0.0,1.0
1628540141.75,0,0,20.76190748182415,0.0,1.0
1628540142.21875,0,0,18.516075274099954,0.0,1.0
1628540142.6875,0,0,17.817320397764323,0.0,1.0
1628540143.15625,0,0,18.329883998364885,0.0,1.0
1628540143.625,0,0,0.0,0.0,1.0
1628540144.09375,0,0,18.437064021790583,0.0,1.0
1628540144.5625,0,0,0.0,0.0,1.0
1628540145.03125,0,0,11.727924401048908,0.0,1.0
1628540145.5,0,0,17.643375719554005,0.0,1.0
1628540145.96875,0,0,0.0,0.0,1.0
1628540146.4375,0,0,14.595567988664847,0.0,1.0
1628540146.90625,0,0,0.0,0.0,1.0
1628540147.375,0,0,0.0,0.0,1.0
1628540147.84375,0,0,23.146952529026397,0.0,1.0
1628540148.3125,0,0,7.317832455209531,0.0,1.0
1628540148.78125,0,0,-0.8712354852888987,0.0,1.0
1628540149.25,0,0,11.033170711569412,0.0,1.0
1628540149.71875,0,0,3.221523414050062,0.0,1.0
1628540150.1875,0,0,15.317914608449366,0.0,1.0
1628540150.65625,0,0,0.0,0.0,1.0
1628540151.125,0,0,77.7703458150061,0.0,1.0
1628540151.59375,0,0,0.0,0.0,1.0
1628540152.0625,0,0,21.637220929940582,0.0,1.0
1628540152.53125,0,0,17.1432131335713,0.0,1.0
1628540153.0,0,0,0.0,0.0,1.0
1628540153.46875,0,0,62.05190201778993,0.0,1.0
1628540153.9375,0,0,0.0,0.0,1.0
1628540154.40625,0,0,22.51717089944698,0.0,1.0
1628540154.875,0,0,0.0,0.0,1.0
1628540155.34375,0,0,78.87189882807962,0.0,1.0
1628540155.8125,0,0,19.82764825855626,0.0,1.0
1628540156.28125,0,0,0.0,0.0,1.0
1628540156.75,0,0,9.259191085308787,0.0,1.0
1628540157.21875,0,0,49.55973911121131,0.0,1.0
1628540157.6875,0,0,-4.942555266308975,0.0,1.0
1628540158.15625,0,0,22.606369491168046,0.0,1.0
1628540158.625,0,0,0.0,0.0,1.0
1628540159.09375,0,0,0.0,0.0,1.0
1628540159.5625,0,0,164.2378958406824,0.0,1.0
1628540160.03125,0,0,17.18764737933571,0.0,1.0
1628540160.5,0,0,0.0,0.0,1.0
1628540160.96875,0,0,-3.090360163005513,0.0,1.0
1628540161.4375,0,0,94.99512939360494,0.0,1.0
1628540161.90625,0,0,3.011103012290918,0.0,1.0
1628540162.375,0,0,19.486314850179138,0.0,1.0
1628540162.84375,0,0,0.0,0.0,1.0
1628540163.3125,0,0,-37.7512959470155,0.0,1.0
1628540163.78125,0,0,0.0,0.0,1.0
1628540164.25,0,0,38.86800806630306,0.0,1.0
1628540164.71875,0,0,10.867128655616902,0.0,1.0
1628540165.1875,0,0,61.159327003243945,0.0,1.0
1628540165.65625,0,0,-19.802160299186014,0.0,1.0
1628540166.125,0,0,-2.6045242650279845,0.0,1.0
1628540166.59375,0,0,19.960341747091242,0.0,1.0
1628540167.0625,0,0,0.0,0.0,1.0
1628540167.53125,0,0,0.0,0.0,1.0
1628540168.0,0,0,4.165718475009791,0.0,1.0
1628540168.46875,0,0,16.928080988630466,0.0,1.0
1628540168.9375,0,0,8.966584220725265,0.0,1.0
1628540169.40625,0,0,54.58402121994591,0.0,1.0
1628540169.875,0,0,-6.242843598036558,0.0,1.0
1628540170.34375,0,0,18.471631375515315,0.0,1.0
1628540170.8125,0,0,0.0,0.0,1.0
1628540171.28125,0,0,121.51915606168569,0.0,1.0
1628540171.75,0,0,0.0,0.0,1.0
1628540172.21875,0,0,9.256134084793368,0.0,1.0
1628540172.6875,0,0,15.821371530115158,0.0,1.0
1628540173.15625,0,0,0.0,0.0,1.0
1628540173.625,0,0,25.885980979491315,0.0,1.0
1628540174.09375,0,0,101.05708102091823,0.0,1.0
1628540174.5625,0,0,-5.026151126725772,0.0,1.0
1628540175.03125,0,0,16.074847258379037,0.0,1.0
1628540175.5,0,0,-0.4966060068347032,0.0,1.0
1628540175.96875,0,0,153.35613531908837,0.0,1.0
1628540176.4375,0,0,0.0,0.0,1.0
1628540176.90625,0,0,22.37786979904642,0.0,1.0
1628540177.375,0,0,0.0,0.0,1.0
1628540177.84375,0,0,140.1730287744074,0.0,1.0
1628540178.3125,0,0,0.0,0.0,1.0
1628540178.78125,0,0,-2.1891636299576733,0.0,1.0
1628540179.25,0,0,13.62373994734098,0.0,1.0
1628540179.71875,0,0,99.62580870705806,0.0,1.0
1628540180.1875,0,0,-23.149217319120144,0.0,1.0
1628540180.65625,0,0,16.107857552475018,0.0,1.0
1628540181.125,0,0,-4.178698424073588,0.0,1.0
1628540181.59375,0,0,-10.935712157882392,0.0,1.0
1628540182.0625,0,0,-20.761232926310797,0.0,1.0
1628540182.53125,0,0,9.402451596911293,0.0,1.0
1628540183.0,0,0,26.087516489459627,0.0,1.0
1628540183.46875,0,0,0.0,0.0,1.0
1628540183.9375,0,0,119.61223478363644,0.0,1.0
1628540184.40625,0,0,0.0,0.0,1.0
1628540184.875,0,0,21.94809007684925,0.0,1.0
1628540185.34375,0,0,-5.2366180005965015,0.0,1.0
1628540185.8125,0,0,120.73256976350335,0.0,1.0
1628540186.28125,0,0,-15.978807199865548,0.0,1.0
1628540186.75,0,0,14.557928766166345,0.0,1.0
1628540187.21875,0,0,-9.684104776797874,0.0,1.0
1628540187.6875,0,0,104.79167349446904,0.0,1.0
1628540188.15625,0,0,-21.752195324904864,0.0,1.0
1628540188.625,0,0,20.677716926685324,0.0,1.0
1628540189.09375,0,0,11.404777054954474,0.0,1.0
1628540189.5625,0,0,0.0,0.0,1.0
1628540190.03125,0,0,155.1995534639503,0.0,1.0
1628540190.5,0,0,13.674323889939794,0.0,1.0
1628540190.96875,0,0,17.25139250456086,0.0,1.0
1628540191.4375,0,0,19.624366240416233,0.0,1.0
1628540191.90625,0,0,10.694846593056193,0.0,1.0
1628540192.375,0,0,9.653503792420224,0.0,1.0
1628540192.84375,0,0,8.281999447669278,0.0,1.0
1628540193.3125,0,0,8.461338289775746,0.0,1.0
1628540193.78125,0,0,18.16042275576515,0.0,1.0
1628540194.25,0,0,0.0,0.0,1.0
1628540194.71875,0,0,12.205537075475736,0.0,1.0
1628540195.1875,0,0,16.572100418556285,0.0,1.0
1628540195.65625,0,0,0.0,0.0,1.0
1628540196.125,0,0,14.152343637023568,0.0,1.0
1628540196.59375,0,0,15.616978822785592,0.0,1.0
1628540197.0625,0,0,0.0,0.0,1.0
1628540197.53125,0,0,18.135440522444163,0.0,1.0
1628540198.0,0,0,0.0,0.0,1.0
1628540198.46875,0,0,12.709040965339982,0.0,1.0
1628540198.9375,0,0,10.102807896984476,0.0,1.0
1628540199.40625,0,0,0.0,0.0,1.0
1628540199.875,0,0,13.631780838850043,0.0,1.0
1628540200.34375,0,0,11.518203062244254,0.0,1.0
1628540200.8125,0,0,11.61288349315014,0.0,1.0
1628540201.28125,0,0,11.043864372060655,0.0,1.0
1628540201.75,0,0,10.57692825875128,0.0,1.0
1628540202.21875,0,0,14.432149450588716,0.0,1.0
1628540202.6875,0,0,17.088186619892905,0.0,1.0
1628540203.15625,0,0,0.0,0.0,1.0
1628540203.625,0,0,17.726250419232496,0.0,1.0
1628540204.09375,0,0,16.287464640965975,0.0,1.0
1628540204.5625,0,0,0.0,0.0,1.0
1628540205.03125,0,0,11.714973646461761,0.0,1.0
1628540205.5,0,0,0.0,0.0,1.0
1628540205.96875,0,0,6.053610558694395,0.0,1.0
1628540206.4375,0,0,-6.719609962493221,0.0,1.0
1628540206.90625,0,0,-0.4579512601752844,0.0,1.0
1628540207.375,0,0,21.103972977652482,0.0,1.0
1628540207.84375,0,0,-3.2677665236661846,0.0,1.0
1628540208.3125,0,0,77.11608374160686,0.0,1.0
1628540208.78125,0,0,3.59314236872326,0.0,1.0
1628540209.25,0,0,26.358544474249854,0.0,1.0
1628540209.71875,0,0,0.0,0.0,1.0
1628540210.1875,0,0,53.82387313966866,0.0,1.0
1628540210.65625,0,0,0.0,0.0,1.0
1628540211.125,0,0,35.49260969293903,0.0,1.0
1628540211.59375,0,0,0.0,0.0,1.0
1628540212.0625,0,0,95.03893828386136,0.0,1.0
1628540212.53125,0,0,0.0,0.0,1.0
1628540213.0,0,0,22.225696699404274,0.0,1.0
1628540213.46875,0,0,23.8876588695019,0.0,1.0
1628540213.9375,0,0,0.0,0.0,1.0
1628540214.40625,0,0,129.57741177325104,0.0,1.0
1628540214.875,0,0,-25.3891187856623,0.0,1.0
1628540215.34375,0,0,33.86039521634162,0.0,1.0
1628540215.8125,0,0,0.0,0.0,1.0
1628540216.28125,0,0,129.54101835889418,0.0,1.0
1628540216.75,0,0,0.0,0.0,1.0
1628540217.21875,0,0,23.51752739606975,0.0,1.0
1628540217.6875,0,0,21.377899307147565,0.0,1.0
1628540218.15625,0,0,40.10521314094481,0.0,1.0
1628540218.625,0,0,0.0,0.0,1.0
1628540219.09375,0,0,29.890090499484266,0.0,1.0
1628540219.5625,0,0,0.0,0.0,1.0
1628540220.03125,0,0,50.29649680709899,0.0,1.0
1628540220.5,0,0,0.0,0.0,1.0
1628540220.96875,0,0,27.08066008659424,0.0,1.0
1628540221.4375,0,0,18.97854868278557,0.0,1.0
1628540221.90625,0,0,13.8592302201725,0.0,1.0
1628540222.375,0,0,95.88432401165397,0.0,1.0
1628540222.84375,0,0,41.79094286907385,0.0,1.0
1628540223.3125,0,0,21.884587406947723,0.0,1.0
1628540223.78125,0,0,0.0,0.0,1.0
1628540224.25,0,0,13.49379109541214,0.0,1.0
1628540224.71875,0,0,77.10989944295244,0.0,1.0
1628540225.1875,0,0,20.382681879259486,0.0,1.0
1628540225.65625,0,0,0.0,0.0,1.0
1628540226.125,0,0,13.346328851908178,0.0,1.0
1628540226.59375,0,0,0.0,0.0,1.0
1628540227.0625,0,0,115.18652927663983,0.0,1.0
1628540227.53125,0,0,12.46383600518292,0.0,1.0
1628540228.0,0,0,16.595767476376487,0.0,1.0
1628540228.46875,0,0,94.34515833355232,0.0,1.0
1628540228.9375,0,0,0.0,0.0,1.0
1628540229.40625,0,0,16.353076230460275,0.0,1.0
1628540229.875,0,0,0.0,0.0,1.0
1628540230.34375,0,0,117.08150967804139,0.0,1.0
1628540230.8125,0,0,0.0,0.0,1.0
1628540231.28125,0,0,17.004428176939808,0.0,1.0
1628540231.75,0,0,5.9342005644137155,0.0,1.0
1628540232.21875,0,0,61.10637271851573,0.0,1.0
1628540232.6875,0,0,5.152515615301759,0.0,1.0
1628540233.15625,0,0,3.3079992461568044,0.0,1.0
1628540233.625,0,0,15.214856973361385,0.0,1.0
1628540234.09375,0,0,0.0,0.0,1.0
1628540234.5625,0,0,107.85181353370352,0.0,1.0
1628540235.03125,0,0,13.387743390341985,0.0,1.0
1628540235.5,0,0,18.84572272213434,0.0,1.0
1628540235.96875,0,0,0.5147713879251417,0.0,1.0
1628540236.4375,0,0,82.43500855321078,0.0,1.0
1628540236.90625,0,0,0.0,0.0,1.0
1628540237.375,0,0,0.0,0.0,1.0
1628540237.84375,0,0,11.060408526194914,0.0,1.0
1628540238.3125,0,0,64.05096880993892,0.0,1.0
1628540238.78125,0,0,3.5575784909195804,0.0,1.0
1628540239.25,0,0,17.102738108819516,0.0,1.0
1628540239.71875,0,0,0.0,0.0,1.0
1628540240.1875,0,0,0.0,0.0,1.0
1628540240.65625,0,0,0.0,0.0,1.0
1628540241.125,0,0,16.699784131855502,0.0,1.0
1628540241.59375,0,0,0.0,0.0,1.0
1628540242.0625,0,0,10.957742136615655,0.0,1.0
1628540242.53125,0,0,57.045358923897275,0.0,1.0
1628540243.0,0,0,4.294222481451507,0.0,1.0
1628540243.46875,0,0,18.305835080407054,0.0,1.0
1628540243.9375,0,0,0.0,0.0,1.0
1628540244.40625,0,0,89.23799118871425,0.0,1.0
1628540244.875,0,0,0.0,0.0,1.0
1628540245.34375,0,0,24.25757654151951,0.0,1.0
1628540245.8125,0,0,16.336308219516432,0.0,1.0
1628540246.28125,0,0,0.0,0.0,1.0
1628540246.75,0,0,107.79402959381802,0.0,1.0
1628540247.21875,0,0,-29.36092512091133,0.0,1.0
1628540247.6875,0,0,22.92546500170896,0.0,1.0
1628540248.15625,0,0,0.0,0.0,1.0
1628540248.625,0,0,72.07142055924491,0.0,1.0
1628540249.09375,0,0,0.0,0.0,1.0
1628540249.5625,0,0,26.013941707279827,0.0,1.0
1628540250.03125,0,0,0.0,0.0,1.0
1628540250.5,0,0,14.677174797891734,0.0,1.0
1628540250.96875,0,0,0.0,0.0,1.0
1628540251.4375,0,0,27.519610825864355,0.0,1.0
1628540251.90625,0,0,8.482731937672444,0.0,1.0
1628540252.375,0,0,13.772336437766029,0.0,1.0
1628540252.84375,0,0,23.169910463179843,0.0,1.0
1628540253.3125,0,0,0.0,0.0,1.0
1628540253.78125,0,0,21.260414886240117,0.0,1.0
1628540254.25,0,0,2.4575741155424855,0.0,1.0
1628540254.71875,0,0,19.396311518256592,0.0,1.0
1628540255.1875,0,0,15.221962015245628,0.0,1.0
1628540255.65625,0,0,2.7238116922443374,0.0,1.0
1628540256.125,0,0,0.2740160395526751,0.0,1.0
1628540256.59375,0,0,16.533522966095237,0.0,1.0
1628540257.0625,0,0,11.139613945116675,0.0,1.0
1628540257.53125,0,0,0.0,0.0,1.0
1628540258.0,0,0,7.384618390237512,0.0,1.0
1628540258.46875,0,0,6.848741050917442,0.0,1.0
1628540258.9375,0,0,2.7713291936678734,0.0,1.0
1628540259.40625,0,0,6.0520510034071,0.0,1.0
1628540259.875,0,0,2.4882402267649266,0.0,1.0
1628540260.34375,0,0,6.842938381971427,0.0,1.0
1628540260.8125,0,0,0.0,0.0,1.0
1628540261.28125,0,0,3.292390128077928,0.0,1.0
1628540261.75,0,0,7.7274511648280075,0.0,1.0
1628540262.21875,0,0,2.013706983649813,0.0,1.0
1628540262.6875,0,0,10.726588243994707,0.0,1.0
1628540263.15625,0,0,9.07122383731416,0.0,1.0
1628540263.625,0,0,10.38411165675956,0.0,1.0
1628540264.09375,0,0,15.244150835062309,0.0,1.0
1628540264.5625,0,0,0.0,0.0,1.0
1628540265.03125,0,0,9.770202698443851,0.0,1.0
1628540265.5,0,0,25.31953447728445,0.0,1.0
1628540265.96875,0,0,17.701520688795437,0.0,1.0
1628540266.4375,0,0,13.22108745994036,0.0,1.0
1628540266.90625,0,0,10.989263736521844,0.0,1.0
1628540267.375,0,0,25.884098801035304,0.0,1.0
1628540267.84375,0,0,20.956294409460188,0.0,1.0
1628540268.3125,0,0,0.0,0.0,1.0
1628540268.78125,0,0,14.841875103683748,0.0,1.0
1628540269.25,0,0,31.26840666076712,0.0,1.0
1628540269.71875,0,0,0.0,0.0,1.0
1628540270.1875,0,0,8.660186188502381,0.0,1.0
1628540270.65625,0,0,10.728048995126384,0.0,1.0
1628540271.125,0,0,14.237016801008076,0.0,1.0
1628540271.59375,0,0,52.467921886432634,0.0,1.0
1628540272.0625,0,0,18.487073516455006,0.0,1.0
1628540272.53125,0,0,0.0,0.0,1.0
1628540273.0,0,0,17.527434428599737,0.0,1.0
1628540273.46875,0,0,10.616632348576347,0.0,1.0
1628540273.9375,0,0,14.90506041567654,0.0,1.0
1628540274.40625,0,0,27.933467754966795,0.0,1.0
1628540274.875,0,0,0.0,0.0,1.0
1628540275.34375,0,0,30.37039120069831,0.0,1.0
1628540275.8125,0,0,13.690088796885941,0.0,1.0
1628540276.28125,0,0,14.062962947184024,0.0,1.0
1628540276.75,0,0,0.0,0.0,1.0
1628540277.21875,0,0,18.51490917430803,0.0,1.0
1628540277.6875,0,0,0.0,0.0,1.0
1628540278.15625,0,0,13.90800124827764,0.0,1.0
1628540278.625,0,0,0.0,0.0,1.0
1628540279.09375,0,0,15.877012350718287,0.0,1.0
1628540279.5625,0,0,0.0,0.0,1.0
1628540280.03125,0,0,13.375936058848579,0.0,1.0
1628540280.5,0,0,0.0,0.0,1.0
1628540280.96875,0,0,14.658943250872236,0.0,1.0
1628540281.4375,0,0,21.073382795207777,0.0,1.0
1628540281.90625,0,0,0.0,0.0,1.0
1628540282.375,0,0,13.099789521931635,0.0,1.0
1628540282.84375,0,0,10.569114347890205,0.0,1.0
1628540283.3125,0,0,21.00841619732637,0.0,1.0
1628540283.78125,0,0,8.493316505924868,0.0,1.0
1628540284.25,0,0,9.03392476842003,0.0,1.0
1628540284.71875,0,0,13.129163277518924,0.0,1.0
1628540285.1875,0,0,0.0,0.0,1.0
1628540285.65625,0,0,66.85625646009994,0.0,1.0
1628540286.125,0,0,0.0,0.0,1.0
1628540286.59375,0,0,14.767191248925254,0.0,1.0
1628540287.0625,0,0,8.83972913142397,0.0,1.0
1628540287.53125,0,0,29.519968943784058,0.0,1.0
1628540288.0,0,0,13.65714755995585,0.0,1.0
1628540288.46875,0,0,0.0,0.0,1.0
1628540288.9375,0,0,13.266761173985575,0.0,1.0
1628540289.40625,0,0,14.839121641881665,0.0,1.0
1628540289.875,0,0,10.359192921637945,0.0,1.0
1628540290.34375,0,0,18.08976616542233,0.0,1.0
1628540290.8125,0,0,15.602343107360754,0.0,1.0
1628540291.28125,0,0,2.7142605392333907,0.0,1.0
1628540291.75,0,0,46.947561008016294,0.0,1.0
1628540292.21875,0,0,7.83840412583765,0.0,1.0
1628540292.6875,0,0,16.184535432915165,0.0,1.0
1628540293.15625,0,0,0.0,0.0,1.0
1628540293.625,0,0,54.20908507743663,0.0,1.0
1628540294.09375,0,0,15.363016604420178,0.0,1.0
1628540294.5625,0,0,16.122434291316306,0.0,1.0
1628540295.03125,0,0,9.08286898815725,0.0,1.0
1628540295.5,0,0,10.958009404795334,0.0,1.0
1628540295.96875,0,0,9.568378498629928,0.0,1.0
1628540296.4375,0,0,16.718988224375487,0.0,1.0
1628540296.90625,0,0,20.87544139971248,0.0,1.0
1628540297.375,0,0,8.553882234451246,0.0,1.0
1628540297.84375,0,0,48.36655801344195,0.0,1.0
1628540298.3125,0,0,14.806276786829743,0.0,1.0
1628540298.78125,0,0,0.0,0.0,1.0
1628540299.25,0,0,14.102435781412439,0.0,1.0
1628540299.71875,0,0,10.226536281107602,0.0,1.0
1628540300.1875,0,0,4.6150576267598575,0.0,1.0
1628540300.65625,0,0,18.529387230376443,0.0,1.0
1628540301.125,0,0,0.0,0.0,1.0
1628540301.59375,0,0,31.711210637479212,0.0,1.0
1628540302.0625,0,0,22.864909405321846,0.0,1.0
1628540302.53125,0,0,9.691120641624376,0.0,1.0
1628540303.0,0,0,12.149991210387405,0.0,1.0
1628540303.46875,0,0,0.0,0.0,1.0
1628540303.9375,0,0,0.0,0.0,1.0
1628540304.40625,0,0,18.50340949360362,0.0,1.0
1628540304.875,0,0,17.79137004307905,0.0,1.0
1628540305.34375,0,0,10.430938380911533,0.0,1.0
1628540305.8125,0,0,34.24521204308149,0.0,1.0
1628540306.28125,0,0,16.1153224712355,0.0,1.0
1628540306.75,0,0,0.0,0.0,1.0
1628540307.21875,0,0,13.5939528148621,0.0,1.0
1628540307.6875,0,0,-0.3213664744205852,0.0,1.0
1628540308.15625,0,0,12.724129112972758,0.0,1.0
1628540308.625,0,0,17.71298613885527,0.0,1.0
1628540309.09375,0,0,14.173157977974514,0.0,1.0
1628540309.5625,0,0,19.452449053737094,0.0,1.0
1628540310.03125,0,0,0.0,0.0,1.0
1628540310.5,0,0,19.734140670984715,0.0,1.0
1628540310.96875,0,0,0.0,0.0,1.0
1628540311.4375,0,0,15.288406505378028,0.0,1.0
1628540311.90625,0,0,11.826727665394788,0.0,1.0
1628540312.375,0,0,14.33808145217173,0.0,1.0
1628540312.84375,0,0,10.419192820639292,0.0,1.0
1628540313.3125,0,0,0.0,0.0,1.0
1628540313.78125,0,0,6.605373040215874,0.0,1.0
1628540314.25,0,0,15.606038833644199,0.0,1.0
1628540314.71875,0,0,0.0,0.0,1.0
1628540315.1875,0,0,11.742616433858732,0.0,1.0
1628540315.65625,0,0,0.0,0.0,1.0
1628540316.125,0,0,11.442054641261171,0.0,1.0
1628540316.59375,0,0,10.819187808869737,0.0,1.0
1628540317.0625,0,0,8.602670642230127,0.0,1.0
1628540317.53125,0,0,14.219520975301553,0.0,1.0
1628540318.0,0,0,0.0,0.0,1.0
1628540318.46875,0,0,12.109087163905668,0.0,1.0
1628540318.9375,0,0,14.098071506319435,0.0,1.0
1628540319.40625,0,0,15.493962796629758,0.0,1.0
1628540319.875,0,0,16.06700306525754,0.0,1.0
1628540320.34375,0,0,14.974217842866409,0.0,1.0
1628540320.8125,0,0,12.187572090755177,0.0,1.0
1628540321.28125,0,0,0.0,0.0,1.0
1628540321.75,0,0,0.0,0.0,1.0
1628540322.21875,0,0,12.555434678921635,0.0,1.0
1628540322.6875,0,0,22.2504632965055,0.0,1.0
1628540323.15625,0,0,0.0,0.0,1.0
1628540323.625,0,0,12.176492290946557,0.0,1.0
1628540324.09375,0,0,0.0,0.0,1.0
1628540324.5625,0,0,14.464911032101089,0.0,1.0
1628540325.03125,0,0,20.1520355392038,0.0,1.0
1628540325.5,0,0,8.939414487958272,0.0,1.0
1628540325.96875,0,0,22.909218480025178,0.0,1.0
1628540326.4375,0,0,12.30381575414017,0.0,1.0
1628540326.90625,0,0,0.0,0.0,1.0
1628540327.375,0,0,8.661136095630912,0.0,1.0
1628540327.84375,0,0,11.85200684623838,0.0,1.0
1628540328.3125,0,0,12.067602268731378,0.0,1.0
1628540328.78125,0,0,60.52002664207089,0.0,1.0
1628540329.25,0,0,-18.734680362348332,0.0,1.0
1628540329.71875,0,0,24.695009353369326,0.0,1.0
1628540330.1875,0,0,-9.039534104308068,0.0,1.0
1628540330.65625,0,0,80.3247880396996,0.0,1.0
1628540331.125,0,0,0.0,0.0,1.0
1628540331.59375,0,0,12.283353125145885,0.0,1.0
1628540332.0625,0,0,9.64261002762329,0.0,1.0
1628540332.53125,0,0,0.0,0.0,1.0
1628540333.0,0,0,89.83655437169362,0.0,1.0
1628540333.46875,0,0,0.0,0.0,1.0
1628540333.9375,0,0,15.705531450116576,0.0,1.0
1628540334.40625,0,0,4.742246955507893,0.0,1.0
1628540334.875,0,0,81.58939640203354,0.0,1.0
1628540335.34375,0,0,5.276173529750537,0.0,1.0
1628540335.8125,0,0,0.0,0.0,1.0
1628540336.28125,0,0,14.762717840639585,0.0,1.0
1628540336.75,0,0,121.42081254779053,0.0,1.0
1628540337.21875,0,0,-38.08808260275966,0.0,1.0
1628540337.6875,0,0,14.651475130946197,0.0,1.0
1628540338.15625,0,0,0.0,0.0,1.0
1628540338.625,0,0,-3.7515915536136726,0.0,1.0
1628540339.09375,0,0,120.47636009126207,0.0,1.0
1628540339.5625,0,0,15.328004660577374,0.0,1.0
1628540340.03125,0,0,12.737375596694335,0.0,1.0
1628540340.5,0,0,0.0,0.0,1.0
1628540340.96875,0,0,132.3685865401919,0.0,1.0
1628540341.4375,0,0,0.0,0.0,1.0
1628540341.90625,0,0,43.8432120769349,0.0,1.0
1628540342.375,0,0,8.22845339042666,0.0,1.0
1628540342.84375,0,0,0.0,0.0,1.0
1628540343.3125,0,0,193.76226266001188,0.0,1.0
1628540343.78125,0,0,0.0,0.0,1.0
1628540344.25,0,0,17.589462960518713,0.0,1.0
1628540344.71875,0,0,-23.680743581489466,0.0,1.0
1628540345.1875,0,0,161.3681136474289,0.0,1.0
1628540345.65625,0,0,25.153545209997276,0.0,1.0
1628540346.125,0,0,0.0,0.0,1.0
1628540346.59375,0,0,4.2273019710109345,0.0,1.0
1628540347.0625,0,0,151.6992284130911,0.0,1.0
1628540347.53125,0,0,-18.83716232828287,0.0,1.0
1628540348.0,0,0,7.7954625773752975,0.0,1.0
1628540348.46875,0,0,0.0,0.0,1.0
1628540348.9375,0,0,294.38375640297335,0.0,1.0
1628540349.40625,0,0,0.0,0.0,1.0
1628540349.875,0,0,25.102180456476372,0.0,1.0
1628540350.34375,0,0,13.108512402018388,0.0,1.0
1628540350.8125,0,0,0.0,0.0,1.0
1628540351.28125,0,0,-39.91868344704929,0.0,1.0
1628540351.75,0,0,22.06690124084035,0.0,1.0
1628540352.21875,0,0,13.084603145815954,0.0,1.0
1628540352.6875,0,0,-3.896727411029255,0.0,1.0
1628540353.15625,0,0,176.85745745451035,0.0,1.0
1628540353.625,0,0,14.179606923930507,0.0,1.0
1628540354.09375,0,0,0.0,0.0,1.0
1628540354.5625,0,0,-16.961090558607474,0.0,1.0
1628540355.03125,0,0,0.0,0.0,1.0
1628540355.5,0,0,159.59399089333886,0.0,1.0
1628540355.96875,0,0,3.8250385805107503,0.0,1.0
1628540356.4375,0,0,3.1845064281945294,0.0,1.0
1628540356.90625,0,0,284.31111283666644,0.0,1.0
1628540357.375,0,0,0.0,0.0,1.0
1628540357.84375,0,0,0.0,0.0,1.0
1628540358.3125,0,0,25.259568155817288,0.0,1.0
1628540358.78125,0,0,-1.411052369392223,0.0,1.0
1628540359.25,0,0,132.48215742760476,0.0,1.0
1628540359.71875,0,0,0.0,0.0,1.0
1628540360.1875,0,0,18.10526435016109,0.0,1.0
1628540360.65625,0,0,0.0,0.0,1.0
1628540361.125,0,0,196.88259817982083,0.0,1.0
1628540361.59375,0,0,0.0,0.0,1.0
1628540362.0625,0,0,-4.623518544780453,0.0,1.0
1628540362.53125,0,0,26.64326679818911,0.0,1.0
1628540363.0,0,0,-31.54765069560717,0.0,1.0
1628540363.46875,0,0,213.99137634104503,0.0,1.0
1628540363.9375,0,0,17.013558750678023,0.0,1.0
1628540364.40625,0,0,23.396490843980658,0.0,1.0
1628540364.875,0,0,0.0,0.0,1.0
1628540365.34375,0,0,158.58240128720013,0.0,1.0
1628540365.8125,0,0,0.0,0.0,1.0
1628540366.28125,0,0,26.85996548069449,0.0,1.0
1628540366.75,0,0,5.242894048391114,0.0,1.0
1628540367.21875,0,0,94.89018633534063,0.0,1.0
1628540367.6875,0,0,-21.740959803224,0.0,1.0
1628540368.15625,0,0,21.786658064151183,0.0,1.0
1628540368.625,0,0,0.0,0.0,1.0
1628540369.09375,0,0,15.971082533956045,0.0,1.0
1628540369.5625,0,0,-0.6746737095482878,0.0,1.0
1628540370.03125,0,0,14.458409104657598,0.0,1.0
1628540370.5,0,0,20.71667226614104,0.0,1.0
1628540370.96875,0,0,0.0,0.0,1.0
1628540371.4375,0,0,19.825266215798845,0.0,1.0
1628540371.90625,0,0,8.56535470628593,0.0,1.0
1628540372.375,0,0,4.431099151150182,0.0,1.0
1628540372.84375,0,0,5.301977444840687,0.0,1.0
1628540373.3125,0,0,12.899082090223262,0.0,1.0
1628540373.78125,0,0,4.963231285862343,0.0,1.0
1628540374.25,0,0,11.805975318047665,0.0,1.0
1628540374.71875,0,0,6.683039322414017,0.0,1.0
1628540375.1875,0,0,8.31096836219817,0.0,1.0
1628540375.65625,0,0,8.767574804229827,0.0,1.0
1628540376.125,0,0,0.0,0.0,1.0
1628540376.59375,0,0,12.0777843778785,0.0,1.0
1628540377.0625,0,0,0.0,0.0,1.0
1628540377.53125,0,0,7.61058331308102,0.0,1.0
1628540378.0,0,0,15.773668069020053,0.0,1.0
1628540378.46875,0,0,14.745624082911286,0.0,1.0
1628540378.9375,0,0,11.538511644126423,0.0,1.0
1628540379.40625,0,0,0.0,0.0,1.0
1628540379.875,0,0,12.01516064517591,0.0,1.0
1628540380.34375,0,0,10.797697390655031,0.0,1.0
1628540380.8125,0,0,0.0,0.0,1.0
1628540381.28125,0,0,10.274792687084732,0.0,1.0
1628540381.75,0,0,12.803219707804073,0.0,1.0
1628540382.21875,0,0,0.0,0.0,1.0
1628540382.6875,0,0,16.299531186723005,0.0,1.0
1628540383.15625,0,0,0.0,0.0,1.0
1628540383.625,0,0,11.37991310507466,0.0,1.0
1628540384.09375,0,0,0.0,0.0,1.0
1628540384.5625,0,0,17.70699691177246,0.0,1.0
1628540385.03125,0,0,-0.4297966434794482,0.0,1.0
1628540385.5,0,0,14.343113293549974,0.0,1.0
1628540385.96875,0,0,5.963260959398411,0.0,1.0
1628540386.4375,0,0,0.6610473365989749,0.0,1.0
1628540386.90625,0,0,18.23229067869052,0.0,1.0
1628540387.375,0,0,12.606968649220427,0.0,1.0
1628540387.84375,0,0,12.215972632371054,0.0,1.0
1628540388.3125,0,0,15.186481752450275,0.0,1.0
1628540388.78125,0,0,0.0,0.0,1.0
1628540389.25,0,0,17.74432507260256,0.0,1.0
1628540389.71875,0,0,16.86390335603754,0.0,1.0
1628540390.1875,0,0,16.571649703005296,0.0,1.0
1628540390.65625,0,0,13.202842626686731,0.0,1.0
1628540391.125,0,0,15.275500918261878,0.0,1.0
1628540391.59375,0,0,14.274484888548669,0.0,1.0
1628540392.0625,0,0,16.74412853912677,0.0,1.0
1628540392.53125,0,0,13.415253983842208,0.0,1.0
1628540393.0,0,0,20.008612180183064,0.0,1.0
1628540393.46875,0,0,0.0,0.0,1.0
1628540393.9375,0,0,22.40914839099431,0.0,1.0
1628540394.40625,0,0,0.0,0.0,1.0
1628540394.875,0,0,22.922167071183534,0.0,1.0
1628540395.34375,0,0,19.362229313138172,0.0,1.0
1628540395.8125,0,0,20.650094242714342,0.0,1.0
1628540396.28125,0,0,21.619866380480836,0.0,1.0
1628540396.75,0,0,0.0,0.0,1.0
1628540397.21875,0,0,24.53929171205458,0.0,1.0
1628540397.6875,0,0,0.0,0.0,1.0
1628540398.15625,0,0,22.117873832801468,0.0,1.0
1628540398.625,0,0,23.13275967151832,0.0,1.0
1628540399.09375,0,0,41.19516775802399,0.0,1.0
1628540399.5625,0,0,22.56137284816578,0.0,1.0
1628540400.03125,0,0,0.0,0.0,1.0
1628540400.5,0,0,21.184726245193165,0.0,1.0
1628540400.96875,0,0,15.690616859450103,0.0,1.0
1628540401.4375,0,0,2.399997546156177,0.0,1.0
1628540401.90625,0,0,21.26864281443837,0.0,1.0
1628540402.375,0,0,0.0,0.0,1.0
1628540402.84375,0,0,62.83523070595148,0.0,1.0
1628540403.3125,0,0,0.0,0.0,1.0
1628540403.78125,0,0,25.226350281823652,0.0,1.0
1628540404.25,0,0,14.104284451386532,0.0,1.0
1628540404.71875,0,0,0.0,0.0,1.0
1628540405.1875,0,0,76.16996675706233,0.0,1.0
1628540405.65625,0,0,-9.38239656251305,0.0,1.0
1628540406.125,0,0,18.9305765499455,0.0,1.0
1628540406.59375,0,0,0.0,0.0,1.0
1628540407.0625,0,0,67.71178090465781,0.0,1.0
1628540407.53125,0,0,0.0,0.0,1.0
1628540408.0,0,0,0.0,0.0,1.0
1628540408.46875,0,0,4.434169639054335,0.0,1.0
1628540408.9375,0,0,4.591648061483918,0.0,1.0
1628540409.40625,0,0,0.0,0.0,1.0
1628540409.875,0,0,-5.468656315544947,0.0,1.0
1628540410.34375,0,0,16.28161336541588,0.0,1.0
1628540410.8125,0,0,0.0,0.0,1.0
1628540411.28125,0,0,74.20557185960253,0.0,1.0
1628540411.75,0,0,24.825509266828917,0.0,1.0
1628540412.21875,0,0,0.0,0.0,1.0
1628540412.6875,0,0,1.176114643790366,0.0,1.0
1628540413.15625,0,0,58.715536866126506,0.0,1.0
1628540413.625,0,0,-2.6673569772054333,0.0,1.0
1628540414.09375,0,0,22.09116893979168,0.0,1.0
1628540414.5625,0,0,0.0,0.0,1.0
1628540415.03125,0,0,-6.7088703100790905,0.0,1.0
1628540415.5,0,0,146.90424696064738,0.0,1.0
1628540415.96875,0,0,-6.7112485867236655,0.0,1.0
1628540416.4375,0,0,16.92900752321094,0.0,1.0
1628540416.90625,0,0,0.0,0.0,1.0
1628540417.375,0,0,106.43796007942731,0.0,1.0
1628540417.84375,0,0,0.0,0.0,1.0
1628540418.3125,0,0,15.280797529091114,0.0,1.0
1628540418.78125,0,0,0.0,0.0,1.0
1628540419.25,0,0,132.4301560991042,0.0,1.0
1628540419.71875,0,0,0.0,0.0,1.0
1628540420.1875,0,0,23.58102831533681,0.0,1.0
1628540420.65625,0,0,2.064594322555337,0.0,1.0
1628540421.125,0,0,0.0,0.0,1.0
1628540421.59375,0,0,151.07107398428903,0.0,1.0
1628540422.0625,0,0,-22.307830140588933,0.0,1.0
1628540422.53125,0,0,31.777786236292293,0.0,1.0
1628540423.0,0,0,0.0,0.0,1.0
1628540423.46875,0,0,5.100592061410251,0.0,1.0
1628540423.9375,0,0,0.0,0.0,1.0
1628540424.40625,0,0,-37.79234176240526,0.0,1.0
1628540424.875,0,0,22.2079672040889,0.0,1.0
1628540425.34375,0,0,20.950816496589795,0.0,1.0
1628540425.8125,0,0,-6.864076845744831,0.0,1.0
1628540426.28125,0,0,0.0,0.0,1.0
1628540426.75,0,0,18.34215228383559,0.0,1.0
1628540427.21875,0,0,3.7417066698208674,0.0,1.0
1628540427.6875,0,0,4.232163920597688,0.0,1.0
1628540428.15625,0,0,128.57642480500505,0.0,1.0
1628540428.625,0,0,-30.893779060472074,0.0,1.0
1628540429.09375,0,0,8.176292165346782,0.0,1.0
1628540429.5625,0,0,-9.88065233361069,0.0,1.0
1628540430.03125,0,0,152.82199096807003,0.0,1.0
1628540430.5,0,0,24.067080452452597,0.0,1.0
1628540430.96875,0,0,0.0,0.0,1.0
1628540431.4375,0,0,0.0,0.0,1.0
1628540431.90625,0,0,190.51881045703098,0.0,1.0
1628540432.375,0,0,-0.48586341734512883,0.0,1.0
1628540432.84375,0,0,25.304575429177067,0.0,1.0
1628540433.3125,0,0,0.0,0.0,1.0
1628540433.78125,0,0,116.32868325198304,0.0,1.0
1628540434.25,0,0,0.0,0.0,1.0
1628540434.71875,0,0,11.107673297561162,0.0,1.0
1628540435.1875,0,0,0.0,0.0,1.0
1628540435.65625,0,0,0.0,0.0,1.0
1628540436.125,0,0,0.0,0.0,1.0
1628540436.59375,0,0,0.0,0.0,1.0
1628540437.0625,0,0,9.5844498845857,0.0,1.0
1628540437.53125,0,0,0.0,0.0,1.0
1628540438.0,0,0,155.98086315605516,0.0,1.0
1628540438.46875,0,0,23.87455143794543,0.0,1.0
1628540438.9375,0,0,0.0,0.0,1.0
1628540439.40625,0,0,0.0,0.0,1.0
1628540439.875,0,0,130.04676530690813,0.0,1.0
1628540440.34375,0,0,-33.162018146975846,0.0,1.0
1628540440.8125,0,0,19.365742739814664,0.0,1.0
1628540441.28125,0,0,0.0,0.0,1.0
1628540441.75,0,0,116.79122802130378,0.0,1.0
1628540442.21875,0,0,-32.145896205530185,0.0,1.0
1628540442.6875,0,0,21.141728704986015,0.0,1.0
1628540443.15625,0,0,15.176067942110253,0.0,1.0
1628540443.625,0,0,17.080680257562737,0.0,1.0
1628540444.09375,0,0,15.446701403246774,0.0,1.0
1628540444.5625,0,0,0.0,0.0,1.0
1628540445.03125,0,0,20.31410873680978,0.0,1.0
1628540445.5,0,0,30.059503634635398,0.0,1.0
1628540445.96875,0,0,0.0,0.0,1.0
1628540446.4375,0,0,4.729420476905523,0.0,1.0
1628540446.90625,0,0,11.119921540908601,0.0,1.0
1628540447.375,0,0,22.650284478821256,0.0,1.0
1628540447.84375,0,0,16.104175740785866,0.0,1.0
1628540448.3125,0,0,0.0,0.0,1.0
1628540448.78125,0,0,15.32638370534163,0.0,1.0
1628540449.25,0,0,15.566654073640507,0.0,1.0
1628540449.71875,0,0,9.471401127382583,0.0,1.0
1628540450.1875,0,0,14.24021409480048,0.0,1.0
1628540450.65625,0,0,22.59631975849048,0.0,1.0
1628540451.125,0,0,17.171577241924975,0.0,1.0
1628540451.59375,0,0,0.0,0.0,1.0
1628540452.0625,0,0,19.383987299739534,0.0,1.0
1628540452.53125,0,0,18.80814877844149,0.0,1.0
1628540453.0,0,0,0.0,0.0,1.0
1628540453.46875,0,0,18.202758740442345,0.0,1.0
1628540453.9375,0,0,0.0,0.0,1.0
1628540454.40625,0,0,23.826179976254817,0.0,1.0
1628540454.875,0,0,13.947194515570121,0.0,1.0
1628540455.34375,0,0,10.831666890943657,0.0,1.0
1628540455.8125,0,0,18.358159819043514,0.0,1.0
1628540456.28125,0,0,18.732311314169618,0.0,1.0
1628540456.75,0,0,0.0,0.0,1.0
1628540457.21875,0,0,19.752675195097282,0.0,1.0
1628540457.6875,0,0,0.0,0.0,1.0
1628540458.15625,0,0,13.893997138228091,0.0,1.0
1628540458.625,0,0,21.80290021724155,0.0,1.0
1628540459.09375,0,0,-6.2241068870768155,0.0,1.0
1628540459.5625,0,0,9.116087266176734,0.0,1.0
1628540460.03125,0,0,7.101028795443284,0.0,1.0
1628540460.5,0,0,60.52327109652241,0.0,1.0
1628540460.96875,0,0,-14.908595037921723,0.0,1.0
1628540461.4375,0,0,27.511445584739484,0.0,1.0
1628540461.90625,0,0,0.0,0.0,1.0
1628540462.375,0,0,69.4999772255811,0.0,1.0
1628540462.84375,0,0,0.0,0.0,1.0
1628540463.3125,0,0,22.439602217307275,0.0,1.0
1628540463.78125,0,0,9.573433791953027,0.0,1.0
1628540464.25,0,0,68.21113248346975,0.0,1.0
1628540464.71875,0,0,0.0,0.0,1.0
1628540465.1875,0,0,13.222579275235466,0.0,1.0
1628540465.65625,0,0,16.245897367859477,0.0,1.0
1628540466.125,0,0,81.4659360986527,0.0,1.0
1628540466.59375,0,0,-17.462169290622946,0.0,1.0
1628540467.0625,0,0,23.542973500550477,0.0,1.0
1628540467.53125,0,0,22.503847903784152,0.0,1.0
1628540468.0,0,0,5.23483366716736,0.0,1.0
1628540468.46875,0,0,90.03444243939953,0.0,1.0
1628540468.9375,0,0,24.35913073168059,0.0,1.0
1628540469.40625,0,0,0.0,0.0,1.0
1628540469.875,0,0,17.073941577989114,0.0,1.0
1628540470.34375,0,0,54.914069329479325,0.0,1.0
1628540470.8125,0,0,7.895701729820298,0.0,1.0
1628540471.28125,0,0,0.0,0.0,1.0
1628540471.75,0,0,20.69810564333675,0.0,1.0
1628540472.21875,0,0,17.648115985768463,0.0,1.0
1628540472.6875,0,0,102.42499788068105,0.0,1.0
1628540473.15625,0,0,2.0542347365209404,0.0,1.0
1628540473.625,0,0,20.133112924805676,0.0,1.0
1628540474.09375,0,0,0.2016567508437276,0.0,1.0
1628540474.5625,0,0,58.77878115678977,0.0,1.0
1628540475.03125,0,0,22.93372359395858,0.0,1.0
1628540475.5,0,0,0.0,0.0,1.0
1628540475.96875,0,0,6.812797523570963,0.0,1.0
1628540476.4375,0,0,98.01692558283004,0.0,1.0
1628540476.90625,0,0,-22.895133481893318,0.0,1.0
1628540477.375,0,0,21.041628133570516,0.0,1.0
1628540477.84375,0,0,0.0,0.0,1.0
1628540478.3125,0,0,123.93718571692565,0.0,1.0
1628540478.78125,0,0,0.0,0.0,1.0
1628540479.25,0,0,16.54600378384394,0.0,1.0
1628540479.71875,0,0,17.759655482452644,0.0,1.0
1628540480.1875,0,0,0.0,0.0,1.0
1628540480.65625,0,0,86.95417559466176,0.0,1.0
1628540481.125,0,0,24.42591268456389,0.0,1.0
1628540481.59375,0,0,17.935373600428626,0.0,1.0
1628540482.0625,0,0,3.6785081159311503,0.0,1.0
1628540482.53125,0,0,58.27660734401588,0.0,1.0
1628540483.0,0,0,0.0,0.0,1.0
1628540483.46875,0,0,15.743663059534192,0.0,1.0
1628540483.9375,0,0,9.880004869920812,0.0,1.0
1628540484.40625,0,0,52.292752202439715,0.0,1.0
1628540484.875,0,0,8.68154597239496,0.0,1.0
1628540485.34375,0,0,0.0,0.0,1.0
1628540485.8125,0,0,14.852330657047098,0.0,1.0
1628540486.28125,0,0,73.23771351511934,0.0,1.0
1628540486.75,0,0,0.0,0.0,1.0
1628540487.21875,0,0,23.68591594246268,0.0,1.0
1628540487.6875,0,0,21.05198899248421,0.0,1.0
1628540488.15625,0,0,7.231481038512584,0.0,1.0
1628540488.625,0,0,2.240990922236085,0.0,1.0
1628540489.09375,0,0,-2.5284128633908014,0.0,1.0
1628540489.5625,0,0,12.113062232763319,0.0,1.0
1628540490.03125,0,0,0.0,0.0,1.0
1628540490.5,0,0,93.88154877490108,0.0,1.0
1628540490.96875,0,0,0.0,0.0,1.0
1628540491.4375,0,0,18.196886399695988,0.0,1.0
1628540491.90625,0,0,10.013232857102546,0.0,1.0
1628540492.375,0,0,35.838753515538,0.0,1.0
1628540492.84375,0,0,0.0,0.0,1.0
1628540493.3125,0,0,0.0,0.0,1.0
1628540493.78125,0,0,13.442281515635406,0.0,1.0
1628540494.25,0,0,71.18800195111946,0.0,1.0
1628540494.71875,0,0,0.0,0.0,1.0
1628540495.1875,0,0,18.05682990414564,0.0,1.0
1628540495.65625,0,0,0.0,0.0,1.0
1628540496.125,0,0,0.0,0.0,1.0
1628540496.59375,0,0,72.5258367218401,0.0,1.0
1628540497.0625,0,0,16.96408634672067,0.0,1.0
1628540497.53125,0,0,17.33477595473278,0.0,1.0
1628540498.0,0,0,-7.6336037822212,0.0,1.0
1628540498.46875,0,0,100.09637854440861,0.0,1.0
1628540498.9375,0,0,0.0,0.0,1.0
1628540499.40625,0,0,0.6430178376824206,0.0,1.0
1628540499.875,0,0,18.548461708771246,0.0,1.0
1628540500.34375,0,0,0.0,0.0,1.0
1628540500.8125,0,0,92.40390941195832,0.0,1.0
1628540501.28125,0,0,-38.90953979203189,0.0,1.0
1628540501.75,0,0,28.864049801634344,0.0,1.0
1628540502.21875,0,0,10.400300565778505,0.0,1.0
1628540502.6875,0,0,5.640018285659057,0.0,1.0
1628540503.15625,0,0,19.070029863300732,0.0,1.0
1628540503.625,0,0,0.0,0.0,1.0
1628540504.09375,0,0,15.482430261963572,0.0,1.0
1628540504.5625,0,0,13.003476620505245,0.0,1.0
1628540505.03125,0,0,15.799164420789655,0.0,1.0
1628540505.5,0,0,14.01140745098431,0.0,1.0
1628540505.96875,0,0,13.456604305485724,0.0,1.0
1628540506.4375,0,0,13.712073458663959,0.0,1.0
1628540506.90625,0,0,0.0,0.0,1.0
1628540507.375,0,0,20.665661822393016,0.0,1.0
1628540507.84375,0,0,0.0,0.0,1.0
1628540508.3125,0,0,13.230497583969935,0.0,1.0
1628540508.78125,0,0,21.488978439364423,0.0,1.0
1628540509.25,0,0,0.0,0.0,1.0
1628540509.71875,0,0,17.790941786350892,0.0,1.0
1628540510.1875,0,0,18.98330863032359,0.0,1.0
1628540510.65625,0,0,18.15353013066065,0.0,1.0
1628540511.125,0,0,21.53035711770127,0.0,1.0
1628540511.59375,0,0,0.0,0.0,1.0
1628540512.0625,0,0,14.046977962926787,0.0,1.0
1628540512.53125,0,0,0.0,0.0,1.0
1628540513.0,0,0,30.938630030297926,0.0,1.0
1628540513.46875,0,0,27.37793229616576,0.0,1.0
1628540513.9375,0,0,0.0,0.0,1.0
1628540514.40625,0,0,22.311277826794615,0.0,1.0
1628540514.875,0,0,12.712934855918,0.0,1.0
1628540515.34375,0,0,0.0,0.0,1.0
1628540515.8125,0,0,0.0,0.0,1.0
1628540516.28125,0,0,16.965319964256082,0.0,1.0
1628540516.75,0,0,11.087932872186308,0.0,1.0
1628540517.21875,0,0,67.20433870559457,0.0,1.0
1628540517.6875,0,0,-17.63893272827541,0.0,1.0
1628540518.15625,0,0,14.662011343039627,0.0,1.0
1628540518.625,0,0,0.5095176706878805,0.0,1.0
1628540519.09375,0,0,-9.629719403882547,0.0,1.0
1628540519.5625,0,0,67.59493943296413,0.0,1.0
1628540520.03125,0,0,12.262588882232148,0.0,1.0
1628540520.5,0,0,0.0,0.0,1.0
1628540520.96875,0,0,5.941581648950372,0.0,1.0
1628540521.4375,0,0,37.79623266411373,0.0,1.0
1628540521.90625,0,0,-6.586065509748396,0.0,1.0
1628540522.375,0,0,15.178448982131847,0.0,1.0
1628540522.84375,0,0,9.194757959127905,0.0,1.0
1628540523.3125,0,0,114.44395585530336,0.0,1.0
1628540523.78125,0,0,0.0,0.0,1.0
1628540524.25,0,0,14.619354480021938,0.0,1.0
1628540524.71875,0,0,20.04426292528848,0.0,1.0
1628540525.1875,0,0,0.0,0.0,1.0
1628540525.65625,0,0,26.61092383299922,0.0,1.0
1628540526.125,0,0,1.533492156562579,0.0,1.0
1628540526.59375,0,0,17.76900863683387,0.0,1.0
1628540527.0625,0,0,0.0,0.0,1.0
1628540527.53125,0,0,81.9691182581524,0.0,1.0
1628540528.0,0,0,-18.222017144648017,0.0,1.0
1628540528.46875,0,0,27.867568970166907,0.0,1.0
1628540528.9375,0,0,0.0,0.0,1.0
1628540529.40625,0,0,-4.415073143358681,0.0,1.0
1628540529.875,0,0,0.0,0.0,1.0
1628540530.34375,0,0,8.581709286387895,0.0,1.0
1628540530.8125,0,0,15.33656070271722,0.0,1.0
1628540531.28125,0,0,6.942594342083159,0.0,1.0
1628540531.75,0,0,97.60386660758222,0.0,1.0
1628540532.21875,0,0,-32.34771493383062,0.0,1.0
1628540532.6875,0,0,32.515692948168926,0.0,1.0
1628540533.15625,0,0,0.0,0.0,1.0
1628540533.625,0,0,77.17143410620908,0.0,1.0
1628540534.09375,0,0,0.0,0.0,1.0
1628540534.5625,0,0,21.885550095933095,0.0,1.0
1628540535.03125,0,0,13.809847932795208,0.0,1.0
1628540535.5,0,0,40.17245109284742,0.0,1.0
1628540535.96875,0,0,-7.742849555523059,0.0,1.0
1628540536.4375,0,0,24.675645396603727,0.0,1.0
1628540536.90625,0,0,0.0,0.0,1.0
1628540537.375,0,0,88.86144029203848,0.0,1.0
1628540537.84375,0,0,0.0,0.0,1.0
1628540538.3125,0,0,22.61595016883918,0.0,1.0
1628540538.78125,0,0,18.14771220347091,0.0,1.0
1628540539.25,0,0,17.161665316714547,0.0,1.0
1628540539.71875,0,0,21.702996810343638,0.0,1.0
1628540540.1875,0,0,13.48385284173161,0.0,1.0
1628540540.65625,0,0,22.718188650020906,0.0,1.0
1628540541.125,0,0,17.03231946340052,0.0,1.0
1628540541.59375,0,0,68.55669564395318,0.0,1.0
1628540542.0625,0,0,-6.629040065684715,0.0,1.0
1628540542.53125,0,0,21.231625557402403,0.0,1.0
1628540543.0,0,0,0.0,0.0,1.0
1628540543.46875,0,0,3.474220365646953,0.0,1.0
1628540543.9375,0,0,0.0,0.0,1.0
1628540544.40625,0,0,20.979029188266768,0.0,1.0
1628540544.875,0,0,13.913616019686122,0.0,1.0
1628540545.34375,0,0,46.503074163733174,0.0,1.0
1628540545.8125,0,0,0.0,0.0,1.0
1628540546.28125,0,0,0.7340163055157592,0.0,1.0
1628540546.75,0,0,10.359192526726316,0.0,1.0
1628540547.21875,0,0,9.295021280079075,0.0,1.0
1628540547.6875,0,0,91.38526776278523,0.0,1.0
1628540548.15625,0,0,11.522656127071079,0.0,1.0
1628540548.625,0,0,21.697501787072156,0.0,1.0
1628540549.09375,0,0,0.0,0.0,1.0
1628540549.5625,0,0,72.84684620658881,0.0,1.0
1628540550.03125,0,0,0.0,0.0,1.0
1628540550.5,0,0,21.76412375484289,0.0,1.0
1628540550.96875,0,0,11.88099691245223,0.0,1.0
1628540551.4375,0,0,18.72025403934641,0.0,1.0
1628540551.90625,0,0,2.395474701924933,0.0,1.0
1628540552.375,0,0,0.0,0.0,1.0
1628540552.84375,0,0,17.518103628848593,0.0,1.0
1628540553.3125,0,0,0.0,0.0,1.0
1628540553.78125,0,0,114.62614056133735,0.0,1.0
1628540554.25,0,0,29.58939960740126,0.0,1.0
1628540554.71875,0,0,0.0,0.0,1.0
1628540555.1875,0,0,0.0,0.0,1.0
1628540555.65625,0,0,80.48945931707918,0.0,1.0
1628540556.125,0,0,0.0,0.0,1.0
1628540556.59375,0,0,36.810703302518704,0.0,1.0
1628540557.0625,0,0,-7.184785314781807,0.0,1.0
1628540557.53125,0,0,29.930252490610183,0.0,1.0
1628540558.0,0,0,109.57043186305964,0.0,1.0
1628540558.46875,0,0,0.0,0.0,1.0
1628540558.9375,0,0,22.38018812758287,0.0,1.0
1628540559.40625,0,0,4.083597522010213,0.0,1.0
1628540559.875,0,0,104.50991759093205,0.0,1.0
1628540560.34375,0,0,15.147576991766607,0.0,1.0
1628540560.8125,0,0,24.49143409439393,0.0,1.0
1628540561.28125,0,0,0.0,0.0,1.0
1628540561.75,0,0,16.24662562887212,0.0,1.0
1628540562.21875,0,0,13.82411125152615,0.0,1.0
1628540562.6875,0,0,11.913041778866186,0.0,1.0
1628540563.15625,0,0,0.0,0.0,1.0
1628540563.625,0,0,17.93813567886761,0.0,1.0
1628540564.09375,0,0,0.0,0.0,1.0
1628540564.5625,0,0,11.023648889797936,0.0,1.0
1628540565.03125,0,0,12.458659486674462,0.0,1.0
1628540565.5,0,0,12.293692920272491,0.0,1.0
1628540565.96875,0,0,17.66516990009964,0.0,1.0
1628540566.4375,0,0,17.625093864308717,0.0,1.0
1628540566.90625,0,0,10.286815597123544,0.0,1.0
1628540567.375,0,0,16.373848541635653,0.0,1.0
1628540567.84375,0,0,18.432945987518558,0.0,1.0
1628540568.3125,0,0,0.0,0.0,1.0
1628540568.78125,0,0,19.53336041031641,0.0,1.0
1628540569.25,0,0,0.0,0.0,1.0
1628540569.71875,0,0,0.0,0.0,1.0
1628540570.1875,0,0,22.630863522586367,0.0,1.0
1628540570.65625,0,0,15.499368323601814,0.0,1.0
1628540571.125,0,0,18.91422592796245,0.0,1.0
1628540571.59375,0,0,0.0,0.0,1.0
1628540572.0625,0,0,18.204234604178588,0.0,1.0
1628540572.53125,0,0,20.37051540768551,0.0,1.0
1628540573.0,0,0,8.071178090157577,0.0,1.0
1628540573.46875,0,0,19.808551609861862,0.0,1.0
1628540573.9375,0,0,14.436492486336974,0.0,1.0
1628540574.40625,0,0,15.122973461884003,0.0,1.0
1628540574.875,0,0,18.78744180909084,0.0,1.0
1628540575.34375,0,0,0.0,0.0,1.0
1628540575.8125,0,0,16.664369682884356,0.0,1.0
1628540576.28125,0,0,1.5516093645589661,0.0,1.0
1628540576.75,0,0,74.69102031955151,0.0,1.0
1628540577.21875,0,0,-0.4293798952059951,0.0,1.0
1628540577.6875,0,0,22.235587522051112,0.0,1.0
1628540578.15625,0,0,0.0,0.0,1.0
1628540578.625,0,0,94.98614089546558,0.0,1.0
1628540579.09375,0,0,0.0,0.0,1.0
1628540579.5625,0,0,28.10579941571519,0.0,1.0
1628540580.03125,0,0,0.0,0.0,1.0
1628540580.5,0,0,7.986608803010286,0.0,1.0
1628540580.96875,0,0,0.0,0.0,1.0
1628540581.4375,0,0,18.223349596452362,0.0,1.0
1628540581.90625,0,0,20.42763426987953,0.0,1.0
1628540582.375,0,0,0.0,0.0,1.0
1628540582.84375,0,0,112.84877836452597,0.0,1.0
1628540583.3125,0,0,-37.94204067468284,0.0,1.0
1628540583.78125,0,0,28.602615298193896,0.0,1.0
1628540584.25,0,0,6.797158478377069,0.0,1.0
1628540584.71875,0,0,92.26391445446161,0.0,1.0
1628540585.1875,0,0,-15.576562097600162,0.0,1.0
1628540585.65625,0,0,-0.3181019158825137,0.0,1.0
1628540586.125,0,0,37.7888326357616,0.0,1.0
1628540586.59375,0,0,-4.745774697593124,0.0,1.0
1628540587.0625,0,0,73.11425255220222,0.0,1.0
1628540587.53125,0,0,0.0,0.0,1.0
1628540588.0,0,0,-2.1950597764604134,0.0,1.0
1628540588.46875,0,0,27.711952017401806,0.0,1.0
1628540588.9375,0,0,35.728673327764255,0.0,1.0
1628540589.40625,0,0,115.32207147579443,0.0,1.0
1628540589.875,0,0,0.0,0.0,1.0
1628540590.34375,0,0,12.914117370711454,0.0,1.0
1628540590.8125,0,0,0.8545493126108455,0.0,1.0
1628540591.28125,0,0,87.66420727700583,0.0,1.0
1628540591.75,0,0,-7.208906619917743,0.0,1.0
1628540592.21875,0,0,4.197046332358931,0.0,1.0
1628540592.6875,0,0,0.0,0.0,1.0
1628540593.15625,0,0,173.92545286863827,0.0,1.0
1628540593.625,0,0,-4.9619733413057885,0.0,1.0
1628540594.09375,0,0,27.911713593459822,0.0,1.0
1628540594.5625,0,0,0.0,0.0,1.0
1628540595.03125,0,0,154.03248296556848,0.0,1.0
1628540595.5,0,0,0.0,0.0,1.0
1628540595.96875,0,0,29.615743187247713,0.0,1.0
1628540596.4375,0,0,11.765545265154639,0.0,1.0
1628540596.90625,0,0,0.0,0.0,1.0
1628540597.375,0,0,107.0498081325515,0.0,1.0
1628540597.84375,0,0,0.0,0.0,1.0
1628540598.3125,0,0,10.132733180840056,0.0,1.0
1628540598.78125,0,0,0.0,0.0,1.0
1628540599.25,0,0,153.982775243535,0.0,1.0
1628540599.71875,0,0,6.2442524718743755,0.0,1.0
1628540600.1875,0,0,21.231743116413103,0.0,1.0
1628540600.65625,0,0,0.0,0.0,1.0
1628540601.125,0,0,83.89243455371609,0.0,1.0
1628540601.59375,0,0,14.441106157215643,0.0,1.0
1628540602.0625,0,0,-0.27092887995652326,0.0,1.0
1628540602.53125,0,0,-2.085911480100381,0.0,1.0
1628540603.0,0,0,121.67118177783718,0.0,1.0
1628540603.46875,0,0,0.0,0.0,1.0
1628540603.9375,0,0,12.922980549369013,0.0,1.0
1628540604.40625,0,0,12.769356952367641,0.0,1.0
1628540604.875,0,0,0.0,0.0,1.0
1628540605.34375,0,0,127.61321079835248,0.0,1.0
1628540605.8125,0,0,19.27268500866662,0.0,1.0
1628540606.28125,0,0,0.0,0.0,1.0
1628540606.75,0,0,10.40178194586205,0.0,1.0
1628540607.21875,0,0,114.92314980699409,0.0,1.0
1628540607.6875,0,0,-14.179175014828191,0.0,1.0
1628540608.15625,0,0,26.354429251782737,0.0,1.0
1628540608.625,0,0,0.0,0.0,1.0
1628540609.09375,0,0,0.0,0.0,1.0
1628540609.5625,0,0,0.0,0.0,1.0
1628540610.03125,0,0,-7.483923744329891,0.0,1.0
1628540610.5,0,0,17.762567856399777,0.0,1.0
1628540610.96875,0,0,0.0,0.0,1.0
1628540611.4375,0,0,109.44677759677695,0.0,1.0
1628540611.90625,0,0,13.067186752981458,0.0,1.0
1628540612.375,0,0,-59.29269803549956,0.0,1.0
1628540612.84375,0,0,253.44317096872405,0.0,1.0
1628540613.3125,0,0,0.0,0.0,1.0
1628540613.78125,0,0,8.299933121722573,0.0,1.0
1628540614.25,0,0,24.464582538884176,0.0,1.0
1628540614.71875,0,0,0.0,0.0,1.0
1628540615.1875,0,0,119.46578046819826,0.0,1.0
1628540615.65625,0,0,0.0,0.0,1.0
1628540616.125,0,0,13.000819489883478,0.0,1.0
1628540616.59375,0,0,11.500595112309083,0.0,1.0
1628540617.0625,0,0,161.8937479650363,0.0,1.0
1628540617.53125,0,0,-52.164233099208545,0.0,1.0
1628540618.0,0,0,30.682045151552657,0.0,1.0
1628540618.46875,0,0,0.0,0.0,1.0
1628540618.9375,0,0,17.344396195370397,0.0,1.0
1628540619.40625,0,0,3.57245462279728,0.0,1.0
1628540619.875,0,0,0.0,0.0,1.0
1628540620.34375,0,0,125.08960587054548,0.0,1.0
1628540620.8125,0,0,-29.9944544378284,0.0,1.0
1628540621.28125,0,0,0.0,0.0,1.0
1628540621.75,0,0,13.983826827830276,0.0,1.0
1628540622.21875,0,0,0.0,0.0,1.0
1628540622.6875,0,0,2.884493389761586,0.0,1.0
1628540623.15625,0,0,16.192263753162493,0.0,1.0
1628540623.625,0,0,0.0,0.0,1.0
1628540624.09375,0,0,10.68796102067575,0.0,1.0
1628540624.5625,0,0,13.464403919766248,0.0,1.0
1628540625.03125,0,0,11.902332725896688,0.0,1.0
1628540625.5,0,0,12.999716540370757,0.0,1.0
1628540625.96875,0,0,16.31437888383189,0.0,1.0
1628540626.4375,0,0,0.0,0.0,1.0
1628540626.90625,0,0,14.086386171066914,0.0,1.0
1628540627.375,0,0,14.941084612479694,0.0,1.0
1628540627.84375,0,0,0.0,0.0,1.0
1628540628.3125,0,0,13.279232572817456,0.0,1.0
1628540628.78125,0,0,12.115997827510487,0.0,1.0
1628540629.25,0,0,14.87327057329839,0.0,1.0
1628540629.71875,0,0,0.0,0.0,1.0
1628540630.1875,0,0,16.056078017404563,0.0,1.0
1628540630.65625,0,0,14.61426895250403,0.0,1.0
1628540631.125,0,0,13.368914506714518,0.0,1.0
1628540631.59375,0,0,20.737258830670065,0.0,1.0
1628540632.0625,0,0,0.0,0.0,1.0
1628540632.53125,0,0,17.21873727797027,0.0,1.0
1628540633.0,0,0,0.0,0.0,1.0
1628540633.46875,0,0,17.71158875137708,0.0,1.0
1628540633.9375,0,0,16.1683076765864,0.0,1.0
1628540634.40625,0,0,10.779818067795722,0.0,1.0
1628540634.875,0,0,19.28071729016635,0.0,1.0
1628540635.34375,0,0,13.85896676052472,0.0,1.0
1628540635.8125,0,0,22.17356655996902,0.0,1.0
1628540636.28125,0,0,3.160184479755332,0.0,1.0
1628540636.75,0,0,0.0,0.0,1.0
1628540637.21875,0,0,15.906229381267973,0.0,1.0
1628540637.6875,0,0,13.103682453696477,0.0,1.0
1628540638.15625,0,0,0.0,0.0,1.0
1628540638.625,0,0,53.727045117985845,0.0,1.0
1628540639.09375,0,0,17.082606879710912,0.0,1.0
1628540639.5625,0,0,0.0,0.0,1.0
1628540640.03125,0,0,11.75758909643105,0.0,1.0
1628540640.5,0,0,0.0,0.0,1.0
1628540640.96875,0,0,14.807629572502092,0.0,1.0
1628540641.4375,0,0,21.430468868203764,0.0,1.0
1628540641.90625,0,0,0.0,0.0,1.0
1628540642.375,0,0,80.74725756177676,0.0,1.0
1628540642.84375,0,0,-22.04704405935669,0.0,1.0
1628540643.3125,0,0,28.144232146637425,0.0,1.0
1628540643.78125,0,0,0.0,0.0,1.0
1628540644.25,0,0,25.342570491909424,0.0,1.0
1628540644.71875,0,0,0.0,0.0,1.0
1628540645.1875,0,0,129.3284467397307,0.0,1.0
1628540645.65625,0,0,16.120477468780305,0.0,1.0
1628540646.125,0,0,20.073263942130673,0.0,1.0
1628540646.59375,0,0,82.42770637845318,0.0,1.0
1628540647.0625,0,0,0.0,0.0,1.0
1628540647.53125,0,0,25.692491436442136,0.0,1.0
1628540648.0,0,0,0.0,0.0,1.0
1628540648.46875,0,0,11.538245882135328,0.0,1.0
1628540648.9375,0,0,80.10578442973778,0.0,1.0
1628540649.40625,0,0,-18.12105982055719,0.0,1.0
1628540649.875,0,0,22.443788884609134,0.0,1.0
1628540650.34375,0,0,0.0,0.0,1.0
1628540650.8125,0,0,111.16814555654844,0.0,1.0
1628540651.28125,0,0,0.0,0.0,1.0
1628540651.75,0,0,26.164938859942446,0.0,1.0
1628540652.21875,0,0,8.110302680744415,0.0,1.0
1628540652.6875,0,0,62.77232999318044,0.0,1.0
1628540653.15625,0,0,0.0,0.0,1.0
1628540653.625,0,0,28.559443277835282,0.0,1.0
1628540654.09375,0,0,0.0,0.0,1.0
1628540654.5625,0,0,13.801133747697904,0.0,1.0
1628540655.03125,0,0,0.0,0.0,1.0
1628540655.5,0,0,184.44133794599344,0.0,1.0
1628540655.96875,0,0,0.0,0.0,1.0
1628540656.4375,0,0,15.460753025280049,0.0,1.0
1628540656.90625,0,0,102.91774432884307,0.0,1.0
1628540657.375,0,0,-15.665330676902652,0.0,1.0
1628540657.84375,0,0,18.592111877591226,0.0,1.0
1628540658.3125,0,0,0.0,0.0,1.0
1628540658.78125,0,0,0.07251410349378763,0.0,1.0
1628540659.25,0,0,96.44168434174178,0.0,1.0
1628540659.71875,0,0,-10.278241845206477,0.0,1.0
1628540660.1875,0,0,8.581679495620854,0.0,1.0
1628540660.65625,0,0,110.13425880162632,0.0,1.0
1628540661.125,0,0,9.695122736981782,0.0,1.0
1628540661.59375,0,0,21.058530110049748,0.0,1.0
1628540662.0625,0,0,0.0,0.0,1.0
1628540662.53125,0,0,137.57160179660357,0.0,1.0
1628540663.0,0,0,0.0,0.0,1.0
1628540663.46875,0,0,24.52465547119671,0.0,1.0
1628540663.9375,0,0,6.3112561956460365,0.0,1.0
1628540664.40625,0,0,0.0,0.0,1.0
1628540664.875,0,0,158.382981813755,0.0,1.0
1628540665.34375,0,0,-36.729883359743425,0.0,1.0
1628540665.8125,0,0,21.403329210072673,0.0,1.0
1628540666.28125,0,0,116.80589677354544,0.0,1.0
1628540666.75,0,0,0.0,0.0,1.0
1628540667.21875,0,0,19.03149276933696,0.0,1.0
1628540667.6875,0,0,15.977462655744887,0.0,1.0
1628540668.15625,0,0,-0.8239950044055477,0.0,1.0
1628540668.625,0,0,113.95162228023878,0.0,1.0
1628540669.09375,0,0,0.6474095635528848,0.0,1.0
1628540669.5625,0,0,21.20583822750881,0.0,1.0
1628540670.03125,0,0,0.0,0.0,1.0
1628540670.5,0,0,135.78007192236058,0.0,1.0
1628540670.96875,0,0,0.0,0.0,1.0
1628540671.4375,0,0,31.868381394427274,0.0,1.0
1628540671.90625,0,0,5.826809646826743,0.0,1.0
1628540672.375,0,0,0.0,0.0,1.0
1628540672.84375,0,0,172.3770171574638,0.0,1.0
1628540673.3125,0,0,0.0,0.0,1.0
1628540673.78125,0,0,20.944060654651153,0.0,1.0
1628540674.25,0,0,0.0,0.0,1.0
1628540674.71875,0,0,148.23455462970787,0.0,1.0
1628540675.1875,0,0,25.941450702535253,0.0,1.0
1628540675.65625,0,0,0.0,0.0,1.0
1628540676.125,0,0,11.842427618720992,0.0,1.0
1628540676.59375,0,0,87.92780898274427,0.0,1.0
1628540677.0625,0,0,-14.729895897767367,0.0,1.0
1628540677.53125,0,0,20.20865984383622,0.0,1.0
1628540678.0,0,0,0.0,0.0,1.0
1628540678.46875,0,0,154.50581453942632,0.0,1.0
1628540678.9375,0,0,0.0,0.0,1.0
1628540679.40625,0,0,8.003277173838715,0.0,1.0
1628540679.875,0,0,27.367755470812288,0.0,1.0
1628540680.34375,0,0,9.228824249367023,0.0,1.0
1628540680.8125,0,0,0.0,0.0,1.0
1628540681.28125,0,0,18.829556177306017,0.0,1.0
1628540681.75,0,0,8.556623839515009,0.0,1.0
1628540682.21875,0,0,9.985376448789179,0.0,1.0
1628540682.6875,0,0,0.0,0.0,1.0
1628540683.15625,0,0,26.44724349050272,0.0,1.0
1628540683.625,0,0,6.409494995283461,0.0,1.0
1628540684.09375,0,0,16.772942047288524,0.0,1.0
1628540684.5625,0,0,19.726055117764496,0.0,1.0
1628540685.03125,0,0,6.937947770950376,0.0,1.0
1628540685.5,0,0,7.526360127781936,0.0,1.0
1628540685.96875,0,0,10.037026532564987,0.0,1.0
1628540686.4375,0,0,13.710164849643261,0.0,1.0
1628540686.90625,0,0,13.292026207474587,0.0,1.0
1628540687.375,0,0,0.0,0.0,1.0
1628540687.84375,0,0,0.0,0.0,1.0
1628540688.3125,0,0,15.49559018316157,0.0,1.0
1628540688.78125,0,0,0.0,0.0,1.0
1628540689.25,0,0,13.704712858323449,0.0,1.0
1628540689.71875,0,0,14.222478517825548,0.0,1.0
1628540690.1875,0,0,0.0,0.0,1.0
1628540690.65625,0,0,15.343779237070105,0.0,1.0
1628540691.125,0,0,10.587546503423031,0.0,1.0
1628540691.59375,0,0,4.59877827474495,0.0,1.0
1628540692.0625,0,0,15.843397234592423,0.0,1.0
1628540692.53125,0,0,14.186889794756977,0.0,1.0
1628540693.0,0,0,0.0,0.0,1.0
1628540693.46875,0,0,19.958636764610155,0.0,1.0
1628540693.9375,0,0,18.988083967804965,0.0,1.0
1628540694.40625,0,0,0.0,0.0,1.0
1628540694.875,0,0,17.38765711473473,0.0,1.0
1628540695.34375,0,0,16.96016693164403,0.0,1.0
1628540695.8125,0,0,13.513428341912112,0.0,1.0
1628540696.28125,0,0,19.40783588624655,0.0,1.0
1628540696.75,0,0,0.0,0.0,1.0
1628540697.21875,0,0,88.1046406713808,0.0,1.0
1628540697.6875,0,0,0.0,0.0,1.0
1628540698.15625,0,0,21.086194723385074,0.0,1.0
1628540698.625,0,0,20.748142204825562,0.0,1.0
1628540699.09375,0,0,0.0,0.0,1.0
1628540699.5625,0,0,67.66684828921422,0.0,1.0
1628540700.03125,0,0,0.0,0.0,1.0
1628540700.5,0,0,0.0,0.0,1.0
1628540700.96875,0,0,0.0,0.0,1.0
1628540701.4375,0,0,108.25222885191315,0.0,1.0
1628540701.90625,0,0,30.259575450443993,0.0,1.0
1628540702.375,0,0,0.0,0.0,1.0
1628540702.84375,0,0,18.853205838625428,0.0,1.0
1628540703.3125,0,0,111.60454975725884,0.0,1.0
1628540703.78125,0,0,-24.95099568723539,0.0,1.0
1628540704.25,0,0,22.146145807908457,0.0,1.0
1628540704.71875,0,0,0.0,0.0,1.0
1628540705.1875,0,0,39.171596149289115,0.0,1.0
1628540705.65625,0,0,94.50649695588045,0.0,1.0
1628540706.125,0,0,-14.799108226027608,0.0,1.0
1628540706.59375,0,0,36.386069366456304,0.0,1.0
1628540707.0625,0,0,0.0,0.0,1.0
1628540707.53125,0,0,73.46147144335504,0.0,1.0
1628540708.0,0,0,0.0,0.0,1.0
1628540708.46875,0,0,24.896303082348265,0.0,1.0
1628540708.9375,0,0,0.0,0.0,1.0
1628540709.40625,0,0,102.71668129299795,0.0,1.0
1628540709.875,0,0,0.0,0.0,1.0
1628540710.34375,0,0,9.070175129148573,0.0,1.0
1628540710.8125,0,0,16.76205813346124,0.0,1.0
1628540711.28125,0,0,29.644859263657587,0.0,1.0
1628540711.75,0,0,-3.7881818665592615,0.0,1.0
1628540712.21875,0,0,26.196962793024134,0.0,1.0
1628540712.6875,0,0,20.648594507301475,0.0,1.0
1628540713.15625,0,0,102.77195677054017,0.0,1.0
1628540713.625,0,0,0.0,0.0,1.0
1628540714.09375,0,0,16.465752761443195,0.0,1.0
1628540714.5625,0,0,16.360424538313666,0.0,1.0
1628540715.03125,0,0,0.0,0.0,1.0
1628540715.5,0,0,23.996568850312446,0.0,1.0
1628540715.96875,0,0,-7.766396211825223,0.0,1.0
1628540716.4375,0,0,25.735905724512538,0.0,1.0
1628540716.90625,0,0,-8.025450007365396,0.0,1.0
1628540717.375,0,0,104.85507010164832,0.0,1.0
1628540717.84375,0,0,0.0,0.0,1.0
1628540718.3125,0,0,0.0,0.0,1.0
1628540718.78125,0,0,0.0,0.0,1.0
1628540719.25,0,0,76.4141092900011,0.0,1.0
1628540719.71875,0,0,0.0,0.0,1.0
1628540720.1875,0,0,26.54595172102257,0.0,1.0
1628540720.65625,0,0,10.138738730410397,0.0,1.0
1628540721.125,0,0,5.325778670016491,0.0,1.0
1628540721.59375,0,0,60.294931589488584,0.0,1.0
1628540722.0625,0,0,-13.265206581155562,0.0,1.0
1628540722.53125,0,0,20.388309975198023,0.0,1.0
1628540723.0,0,0,17.90914726895423,0.0,1.0
1628540723.46875,0,0,84.35063188378415,0.0,1.0
1628540723.9375,0,0,0.0,0.0,1.0
1628540724.40625,0,0,20.212742546594047,0.0,1.0
1628540724.875,0,0,0.0,0.0,1.0
1628540725.34375,0,0,89.89824092645728,0.0,1.0
1628540725.8125,0,0,0.0,0.0,1.0
1628540726.28125,0,0,27.173700792261222,0.0,1.0
1628540726.75,0,0,17.348016175969388,0.0,1.0
1628540727.21875,0,0,0.0,0.0,1.0
1628540727.6875,0,0,0.0,0.0,1.0
1628540728.15625,0,0,-9.64577977746102,0.0,1.0
1628540728.625,0,0,30.411248364454764,0.0,1.0
1628540729.09375,0,0,0.0,0.0,1.0
1628540729.5625,0,0,94.205404770515,0.0,1.0
1628540730.03125,0,0,26.055075488687283,0.0,1.0
1628540730.5,0,0,0.0,0.0,1.0
1628540730.96875,0,0,0.0,0.0,1.0
1628540731.4375,0,0,0.0,0.0,1.0
1628540731.90625,0,0,77.3423333799205,0.0,1.0
1628540732.375,0,0,29.86431278966211,0.0,1.0
1628540732.84375,0,0,0.0,0.0,1.0
1628540733.3125,0,0,8.63863343143265,0.0,1.0
1628540733.78125,0,0,71.67606535773147,0.0,1.0
1628540734.25,0,0,14.784399009143744,0.0,1.0
1628540734.71875,0,0,16.755317868184818,0.0,1.0
1628540735.1875,0,0,43.295726138958216,0.0,1.0
1628540735.65625,0,0,0.0,0.0,1.0
1628540736.125,0,0,0.13848120453987134,0.0,1.0
1628540736.59375,0,0,19.766038182259823,0.0,1.0
1628540737.0625,0,0,0.0,0.0,1.0
1628540737.53125,0,0,53.872744080106415,0.0,1.0
1628540738.0,0,0,0.0,0.0,1.0
1628540738.46875,0,0,7.97961505312469,0.0,1.0
1628540738.9375,0,0,24.561068154278306,0.0,1.0
1628540739.40625,0,0,0.0,0.0,1.0
1628540739.875,0,0,11.953786783452113,0.0,1.0
1628540740.34375,0,0,0.0,0.0,1.0
1628540740.8125,0,0,20.32228223618148,0.0,1.0
1628540741.28125,0,0,14.615926476394272,0.0,1.0
1628540741.75,0,0,9.573982006843389,0.0,1.0
1628540742.21875,0,0,14.813608591082309,0.0,1.0
1628540742.6875,0,0,12.877830196522751,0.0,1.0
1628540743.15625,0,0,25.449153091261945,0.0,1.0
1628540743.625,0,0,12.9981621224295,0.0,1.0
1628540744.09375,0,0,28.572474802912616,0.0,1.0
1628540744.5625,0,0,11.64007768912405,0.0,1.0
1628540745.03125,0,0,7.266962118395412,0.0,1.0
1628540745.5,0,0,19.413034755649214,0.0,1.0
1628540745.96875,0,0,19.758970146509736,0.0,1.0
1628540746.4375,0,0,11.104554946085742,0.0,1.0
1628540746.90625,0,0,15.531245815874792,0.0,1.0
1628540747.375,0,0,24.05252077068186,0.0,1.0
1628540747.84375,0,0,0.0,0.0,1.0
1628540748.3125,0,0,19.213892915313995,0.0,1.0
1628540748.78125,0,0,0.0,0.0,1.0
1628540749.25,0,0,11.86780369326832,0.0,1.0
1628540749.71875,0,0,19.565860640885194,0.0,1.0
1628540750.1875,0,0,0.0,0.0,1.0
1628540750.65625,0,0,14.18870585414143,0.0,1.0
1628540751.125,0,0,15.540987342716596,0.0,1.0
1628540751.59375,0,0,7.212838073675475,0.0,1.0
1628540752.0625,0,0,21.26970431359074,0.0,1.0
1628540752.53125,0,0,19.295022989738186,0.0,1.0
1628540753.0,0,0,10.095624704743681,0.0,1.0
1628540753.46875,0,0,19.519201945560507,0.0,1.0
1628540753.9375,0,0,0.0,0.0,1.0
1628540754.40625,0,0,0.0,0.0,1.0
1628540754.875,0,0,21.503916705093996,0.0,1.0
1628540755.34375,0,0,17.018620021071218,0.0,1.0
1628540755.8125,0,0,0.0,0.0,1.0
1628540756.28125,0,0,0.0,0.0,1.0
1628540756.75,0,0,16.996792180548276,0.0,1.0
1628540757.21875,0,0,0.0,0.0,1.0
1628540757.6875,0,0,11.5358042471927,0.0,1.0
1628540758.15625,0,0,124.3223685481514,0.0,1.0
1628540758.625,0,0,-31.93856129057419,0.0,1.0
1628540759.09375,0,0,47.997805946777795,0.0,1.0
1628540759.5625,0,0,-4.117059212484367,0.0,1.0
1628540760.03125,0,0,-16.855457246709314,0.0,1.0
1628540760.5,0,0,81.19379817377072,0.0,1.0
1628540760.96875,0,0,82.20186624860338,0.0,1.0
1628540761.4375,0,0,-9.87735739404597,0.0,1.0
1628540761.90625,0,0,0.0,0.0,1.0
1628540762.375,0,0,207.06090051351586,0.0,1.0
1628540762.84375,0,0,0.0,0.0,1.0
1628540763.3125,0,0,21.722050530054805,0.0,1.0
1628540763.78125,0,0,7.450315321370085,0.0,1.0
1628540764.25,0,0,169.87452000118213,0.0,1.0
1628540764.71875,0,0,-44.43792547291551,0.0,1.0
1628540765.1875,0,0,20.629215659760067,0.0,1.0
1628540765.65625,0,0,13.954714850654506,0.0,1.0
1628540766.125,0,0,-34.49823309834562,0.0,1.0
1628540766.59375,0,0,234.88753283968018,0.0,1.0
1628540767.0625,0,0,5.943123155008422,0.0,1.0
1628540767.53125,0,0,21.650244437635692,0.0,1.0
1628540768.0,0,0,-46.82469654128292,0.0,1.0
1628540768.46875,0,0,244.4206649336008,0.0,1.0
1628540768.9375,0,0,25.187710052392195,0.0,1.0
1628540769.40625,0,0,0.0,0.0,1.0
1628540769.875,0,0,7.8528400363156985,0.0,1.0
1628540770.34375,0,0,217.94162742719038,0.0,1.0
1628540770.8125,0,0,0.0,0.0,1.0
1628540771.28125,0,0,-4.385912474382667,0.0,1.0
1628540771.75,0,0,-2.819015619958981,0.0,1.0
1628540772.21875,0,0,173.13582445429336,0.0,1.0
1628540772.6875,0,0,189.7987545182997,0.0,1.0
1628540773.15625,0,0,0.0,0.0,1.0
1628540773.625,0,0,36.67914801407384,0.0,1.0
1628540774.09375,0,0,-30.539353774911785,0.0,1.0
1628540774.5625,0,0,255.81245699890573,0.0,1.0
1628540775.03125,0,0,0.0,0.0,1.0
1628540775.5,0,0,31.05132641395736,0.0,1.0
1628540775.96875,0,0,0.0,0.0,1.0
1628540776.4375,0,0,227.46202846047092,0.0,1.0
1628540776.90625,0,0,-46.950402841828975,0.0,1.0
1628540777.375,0,0,14.545775251024759,0.0,1.0
1628540777.84375,0,0,-1.63918905018952,0.0,1.0
1628540778.3125,0,0,259.0964399260907,0.0,1.0
1628540778.78125,0,0,-78.29973814726984,0.0,1.0
1628540779.25,0,0,18.668089250609082,0.0,1.0
1628540779.71875,0,0,-37.613393940741545,0.0,1.0
1628540780.1875,0,0,357.3461133505689,0.0,1.0
1628540780.65625,0,0,0.0,0.0,1.0
1628540781.125,0,0,19.98452197010955,0.0,1.0
1628540781.59375,0,0,20.072383140312212,0.0,1.0
1628540782.0625,0,0,0.0,0.0,1.0
1628540782.53125,0,0,250.1454612572957,0.0,1.0
1628540783.0,0,0,0.0,0.0,1.0
1628540783.46875,0,0,30.517328941168454,0.0,1.0
1628540783.9375,0,0,2.465804874439848,0.0,1.0
1628540784.40625,0,0,-14.291768910367395,0.0,1.0
1628540784.875,0,0,177.56324586821043,0.0,1.0
1628540785.34375,0,0,-49.197111327575115,0.0,1.0
1628540785.8125,0,0,26.305455020701363,0.0,1.0
1628540786.28125,0,0,0.0,0.0,1.0
1628540786.75,0,0,215.66566934494062,0.0,1.0
1628540787.21875,0,0,0.0,0.0,1.0
1628540787.6875,0,0,14.707208248553032,0.0,1.0
1628540788.15625,0,0,-9.70915753464077,0.0,1.0
1628540788.625,0,0,263.6681247619426,0.0,1.0
1628540789.09375,0,0,38.64304721940381,0.0,1.0
1628540789.5625,0,0,0.0,0.0,1.0
1628540790.03125,0,0,0.0,0.0,1.0
1628540790.5,0,0,-14.385089712766554,0.0,1.0
1628540790.96875,0,0,214.1511135715695,0.0,1.0
1628540791.4375,0,0,22.581433875206578,0.0,1.0
1628540791.90625,0,0,15.971508646848044,0.0,1.0
1628540792.375,0,0,-17.429334183111205,0.0,1.0
1628540792.84375,0,0,218.78078529446248,0.0,1.0
1628540793.3125,0,0,0.0,0.0,1.0
1628540793.78125,0,0,14.049348393049748,0.0,1.0
1628540794.25,0,0,188.9350797979611,0.0,1.0
1628540794.71875,0,0,-5.169571657696189,0.0,1.0
1628540795.1875,0,0,8.16059384284278,0.0,1.0
1628540795.65625,0,0,0.0,0.0,1.0
1628540796.125,0,0,-8.303204780729228,0.0,1.0
1628540796.59375,0,0,275.18342975886935,0.0,1.0
1628540797.0625,0,0,21.17168809435481,0.0,1.0
1628540797.53125,0,0,24.669761249000526,0.0,1.0
1628540798.0,0,0,0.0,0.0,1.0
1628540798.46875,0,0,-1.6828792559279353,0.0,1.0
1628540798.9375,0,0,0.0,0.0,1.0
1628540799.40625,0,0,26.70710531349967,0.0,1.0
1628540799.875,0,0,13.98108221323289,0.0,1.0
1628540800.34375,0,0,15.301309231267581,0.0,1.0
1628540800.8125,0,0,5.85766544400754,0.0,1.0
1628540801.28125,0,0,17.42250717917778,0.0,1.0
1628540801.75,0,0,0.0,0.0,1.0
1628540802.21875,0,0,35.4343794826945,0.0,1.0
1628540802.6875,0,0,20.68142333683506,0.0,1.0
1628540803.15625,0,0,0.0,0.0,1.0
1628540803.625,0,0,31.634214166237975,0.0,1.0
1628540804.09375,0,0,16.298448155658722,0.0,1.0
1628540804.5625,0,0,0.0,0.0,1.0
1628540805.03125,0,0,17.50565714952442,0.0,1.0
1628540805.5,0,0,7.535407980753697,0.0,1.0
1628540805.96875,0,0,8.770574420866563,0.0,1.0
1628540806.4375,0,0,8.187385122721135,0.0,1.0
1628540806.90625,0,0,10.21842054927522,0.0,1.0
1628540807.375,0,0,0.0,0.0,1.0
1628540807.84375,0,0,50.6167309011689,0.0,1.0
1628540808.3125,0,0,0.0,0.0,1.0
1628540808.78125,0,0,18.602650604744525,0.0,1.0
1628540809.25,0,0,15.161527077053188,0.0,1.0
1628540809.71875,0,0,0.0,0.0,1.0
1628540810.1875,0,0,10.673540384785346,0.0,1.0
1628540810.65625,0,0,9.844335083651574,0.0,1.0
1628540811.125,0,0,9.09234211899662,0.0,1.0
1628540811.59375,0,0,15.88953838810763,0.0,1.0
1628540812.0625,0,0,0.0,0.0,1.0
1628540812.53125,0,0,0.0,0.0,1.0
1628540813.0,0,0,-7.003828858809686,0.0,1.0
1628540813.46875,0,0,0.0,0.0,1.0
1628540813.9375,0,0,9.348352886306898,0.0,1.0
1628540814.40625,0,0,17.819175534049528,0.0,1.0
1628540814.875,0,0,0.9929852072139058,0.0,1.0
1628540815.34375,0,0,154.55471521385087,0.0,1.0
1628540815.8125,0,0,0.0,0.0,1.0
1628540816.28125,0,0,0.0,0.0,1.0
1628540816.75,0,0,21.312755134156205,0.0,1.0
1628540817.21875,0,0,0.0,0.0,1.0
1628540817.6875,0,0,0.0,0.0,1.0
1628540818.15625,0,0,2.9754360101371193,0.0,1.0
1628540818.625,0,0,28.095033979928978,0.0,1.0
1628540819.09375,0,0,0.0,0.0,1.0
1628540819.5625,0,0,195.1438127627218,0.0,1.0
1628540820.03125,0,0,0.0,0.0,1.0
1628540820.5,0,0,33.97826740821411,0.0,1.0
1628540820.96875,0,0,0.0,0.0,1.0
1628540821.4375,0,0,126.38714183239652,0.0,1.0
1628540821.90625,0,0,0.0,0.0,1.0
1628540822.375,0,0,23.77465078549556,0.0,1.0
1628540822.84375,0,0,13.22842769162684,0.0,1.0
1628540823.3125,0,0,78.86123011843841,0.0,1.0
1628540823.78125,0,0,0.0,0.0,1.0
1628540824.25,0,0,2.2581176606888818,0.0,1.0
1628540824.71875,0,0,22.669782901146554,0.0,1.0
1628540825.1875,0,0,-19.319958776482885,0.0,1.0
1628540825.65625,0,0,220.1638179866741,0.0,1.0
1628540826.125,0,0,14.17724628538188,0.0,1.0
1628540826.59375,0,0,0.0,0.0,1.0
1628540827.0625,0,0,19.305160414471967,0.0,1.0
1628540827.53125,0,0,129.82591382149073,0.0,1.0
1628540828.0,0,0,-32.736997675150185,0.0,1.0
1628540828.46875,0,0,21.20001747894456,0.0,1.0
1628540828.9375,0,0,0.0,0.0,1.0
1628540829.40625,0,0,150.84113752042467,0.0,1.0
1628540829.875,0,0,0.0,0.0,1.0
1628540830.34375,0,0,17.37616769821062,0.0,1.0
1628540830.8125,0,0,22.4888283997856,0.0,1.0
1628540831.28125,0,0,0.0,0.0,1.0
1628540831.75,0,0,109.16884282165002,0.0,1.0
1628540832.21875,0,0,0.0,0.0,1.0
1628540832.6875,0,0,25.728766964385056,0.0,1.0
1628540833.15625,0,0,-9.682625669851006,0.0,1.0
1628540833.625,0,0,179.8482410519825,0.0,1.0
1628540834.09375,0,0,0.0,0.0,1.0
1628540834.5625,0,0,17.993869307478636,0.0,1.0
1628540835.03125,0,0,13.77114322773026,0.0,1.0
1628540835.5,0,0,83.04861858135405,0.0,1.0
1628540835.96875,0,0,-32.24282052693281,0.0,1.0
1628540836.4375,0,0,2.9164952038579735,0.0,1.0
1628540836.90625,0,0,19.018025255607146,0.0,1.0
1628540837.375,0,0,0.0,0.0,1.0
1628540837.84375,0,0,112.43772843437124,0.0,1.0
1628540838.3125,0,0,30.635176917816633,0.0,1.0
1628540838.78125,0,0,0.0,0.0,1.0
1628540839.25,0,0,10.447131996873026,0.0,1.0
1628540839.71875,0,0,0.0,0.0,1.0
1628540840.1875,0,0,0.0,0.0,1.0
1628540840.65625,0,0,25.48070542617169,0.0,1.0
1628540841.125,0,0,22.475831662692666,0.0,1.0
1628540841.59375,0,0,0.0,0.0,1.0
1628540842.0625,0,0,121.86218097676102,0.0,1.0
1628540842.53125,0,0,23.057544484235994,0.0,1.0
1628540843.0,0,0,0.0,0.0,1.0
1628540843.46875,0,0,16.674292029452083,0.0,1.0
1628540843.9375,0,0,69.4169853999458,0.0,1.0
1628540844.40625,0,0,2.2043162270973613,0.0,1.0
1628540844.875,0,0,18.931736816562893,0.0,1.0
1628540845.34375,0,0,0.0,0.0,1.0
1628540845.8125,0,0,143.68135596496754,0.0,1.0
1628540846.28125,0,0,0.0,0.0,1.0
1628540846.75,0,0,29.07880190347073,0.0,1.0
1628540847.21875,0,0,26.523477728307473,0.0,1.0
1628540847.6875,0,0,163.37064459173544,0.0,1.0
1628540848.15625,0,0,23.23072308247547,0.0,1.0
1628540848.625,0,0,0.0,0.0,1.0
1628540849.09375,0,0,0.0,0.0,1.0
1628540849.5625,0,0,135.57157559284877,0.0,1.0
1628540850.03125,0,0,-22.85370423790516,0.0,1.0
1628540850.5,0,0,22.013006646061974,0.0,1.0
1628540850.96875,0,0,23.37837138289525,0.0,1.0
1628540851.4375,0,0,132.8556615266034,0.0,1.0
1628540851.90625,0,0,0.0,0.0,1.0
1628540852.375,0,0,24.66441006938035,0.0,1.0
1628540852.84375,0,0,6.134531433791211,0.0,1.0
1628540853.3125,0,0,0.0,0.0,1.0
1628540853.78125,0,0,192.8988201845552,0.0,1.0
1628540854.25,0,0,0.0,0.0,1.0
1628540854.71875,0,0,36.37504400254544,0.0,1.0
1628540855.1875,0,0,0.0,0.0,1.0
1628540855.65625,0,0,147.47374996397397,0.0,1.0
1628540856.125,0,0,0.0,0.0,1.0
1628540856.59375,0,0,28.370612769272473,0.0,1.0
1628540857.0625,0,0,0.0,0.0,1.0
1628540857.53125,0,0,0.0,0.0,1.0
1628540858.0,0,0,25.463351850946456,0.0,1.0
1628540858.46875,0,0,0.0,0.0,1.0
1628540858.9375,0,0,20.633816424232396,0.0,1.0
1628540859.40625,0,0,15.722536442502562,0.0,1.0
1628540859.875,0,0,8.101349427274442,0.0,1.0
1628540860.34375,0,0,13.905712864886006,0.0,1.0
1628540860.8125,0,0,0.0,0.0,1.0
1628540861.28125,0,0,16.493075984427662,0.0,1.0
1628540861.75,0,0,14.43200017597965,0.0,1.0
1628540862.21875,0,0,20.750349648942457,0.0,1.0
1628540862.6875,0,0,0.0,0.0,1.0
1628540863.15625,0,0,15.489339791306117,0.0,1.0
1628540863.625,0,0,17.126422045842876,0.0,1.0
1628540864.09375,0,0,5.24497467937793,0.0,1.0
1628540864.5625,0,0,0.0,0.0,1.0
1628540865.03125,0,0,17.105182757508135,0.0,1.0
1628540865.5,0,0,25.72121510854714,0.0,1.0
1628540865.96875,0,0,0.0,0.0,1.0
1628540866.4375,0,0,21.16587956630102,0.0,1.0
1628540866.90625,0,0,24.029408510644057,0.0,1.0
1628540867.375,0,0,20.851323770892257,0.0,1.0
1628540867.84375,0,0,19.19022673515711,0.0,1.0
1628540868.3125,0,0,0.0,0.0,1.0
1628540868.78125,0,0,25.33248095969709,0.0,1.0
1628540869.25,0,0,20.14049145813551,0.0,1.0
1628540869.71875,0,0,25.66593769061234,0.0,1.0
1628540870.1875,0,0,0.0,0.0,1.0
1628540870.65625,0,0,256.0498284810812,0.0,1.0
1628540871.125,0,0,0.0,0.0,1.0
1628540871.59375,0,0,103.49936941411671,0.0,1.0
1628540872.0625,0,0,41.77121053610957,0.0,1.0
1628540872.53125,0,0,191.17749088673918,0.0,1.0
1628540873.0,0,0,377.47869677424603,0.0,1.0
1628540873.46875,0,0,-381.20901719893743,0.0,2.0
1628540873.9375,0,0,0.0,0.0,2.0
1628540874.40625,0,0,797.6292178825618,0.0,2.0
1628540874.875,0,0,-33.18870834542527,0.0,2.0
1628540875.34375,0,0,31.33169558420296,0.0,2.0
1628540875.8125,0,0,188.76543312838893,0.0,2.0
1628540876.28125,0,0,-4.5390530824279365,0.0,2.0
1628540876.75,0,0,-24.518637002440496,0.0,2.0
1628540877.21875,0,0,232.4304909576227,0.0,2.0
1628540877.6875,0,0,-66.95837272483193,0.0,2.0
1628540878.15625,0,0,187.74136656429354,0.0,2.0
1628540878.625,0,0,0.0,0.0,2.0
1628540879.09375,0,0,114.29785394631143,0.0,2.0
1628540879.5625,0,0,0.0,0.0,2.0
1628540880.03125,0,0,383.1293682389888,0.0,2.0
1628540880.5,0,0,0.0,0.0,2.0
1628540880.96875,0,0,16.179923951021948,0.0,2.0
1628540881.4375,0,0,161.29030760983733,0.0,2.0
1628540881.90625,0,0,0.0,0.0,2.0
1628540882.375,0,0,115.88621459888907,0.0,2.0
1628540882.84375,0,0,11.385635276248342,0.0,2.0
1628540883.3125,0,0,0.0,0.0,2.0
1628540883.78125,0,0,20.93540910653727,0.0,2.0
1628540884.25,0,0,0.0,0.0,2.0
1628540884.71875,0,0,0.0,0.0,2.0
1628540885.1875,0,0,25.06009525843705,0.0,2.0
1628540885.65625,0,0,6.830229630534076,0.0,2.0
1628540886.125,0,0,0.0,0.0,2.0
1628540886.59375,0,0,50.25324187998549,0.0,2.0
1628540887.0625,0,0,0.0,0.0,2.0
1628540887.53125,0,0,48.24828156444749,0.0,2.0
1628540888.0,0,0,13.040413212060276,0.0,2.0
1628540888.46875,0,0,-15.45507975717366,0.0,2.0
1628540888.9375,0,0,73.30003245709166,0.0,2.0
1628540889.40625,0,0,0.0,0.0,2.0
1628540889.875,0,0,8.988480771181683,0.0,2.0
1628540890.34375,0,0,8.431735640871388,0.0,2.0
1628540890.8125,0,0,17.245004071899103,0.0,2.0
1628540891.28125,0,0,13.91814880748833,0.0,2.0
1628540891.75,0,0,3.2104620257668737,0.0,2.0
1628540892.21875,0,0,22.614637954565204,0.0,2.0
1628540892.6875,0,0,0.0,0.0,2.0
1628540893.15625,0,0,13.880100898938172,0.0,2.0
1628540893.625,0,0,20.860609566399003,0.0,2.0
1628540894.09375,0,0,16.33311369564781,0.0,2.0
1628540894.5625,0,0,19.66090195612104,0.0,2.0
1628540895.03125,0,0,0.0,0.0,2.0
1628540895.5,0,0,22.54315295514332,0.0,2.0
1628540895.96875,0,0,15.284955438632043,0.0,2.0
1628540896.4375,0,0,10.804466188622774,0.0,2.0
1628540896.90625,0,0,19.160486825758987,0.0,2.0
1628540897.375,0,0,0.0,0.0,2.0
1628540897.84375,0,0,20.19209314018264,0.0,2.0
1628540898.3125,0,0,0.0,0.0,2.0
1628540898.78125,0,0,17.235515628027244,0.0,2.0
1628540899.25,0,0,0.0,0.0,2.0
1628540899.71875,0,0,0.0,0.0,2.0
1628540900.1875,0,0,18.011197383968724,0.0,2.0
1628540900.65625,0,0,19.142568425713808,0.0,2.0
1628540901.125,0,0,16.92135093594115,0.0,2.0
1628540901.59375,0,0,15.760691332076144,0.0,2.0
1628540902.0625,0,0,18.910301242486142,0.0,2.0
1628540902.53125,0,0,17.525275497203598,0.0,2.0
1628540903.0,0,0,15.026123122621398,0.0,2.0
1628540903.46875,0,0,15.13702523390416,0.0,2.0
1628540903.9375,0,0,14.86636827422284,0.0,2.0
1628540904.40625,0,0,14.660788339380977,0.0,2.0
1628540904.875,0,0,50.25038532203817,0.0,2.0
1628540905.34375,0,0,3.383159624720069,0.0,2.0
1628540905.8125,0,0,34.22685305189085,0.0,2.0
1628540906.28125,0,0,0.0,0.0,2.0
1628540906.75,0,0,24.076916702189905,0.0,2.0
1628540907.21875,0,0,52.336144004984526,0.0,2.0
1628540907.6875,0,0,0.0,0.0,2.0
1628540908.15625,0,0,26.104256357519564,0.0,2.0
1628540908.625,0,0,24.36735179480132,0.0,2.0
1628540909.09375,0,0,0.0,0.0,2.0
1628540909.5625,0,0,11.594851546962262,0.0,2.0
1628540910.03125,0,0,10.989334063130544,0.0,2.0
1628540910.5,0,0,14.328463711028347,0.0,2.0
1628540910.96875,0,0,10.89277640081343,0.0,2.0
1628540911.4375,0,0,0.0,0.0,2.0
1628540911.90625,0,0,15.336836332663324,0.0,2.0
1628540912.375,0,0,15.628737307253072,0.0,2.0
1628540912.84375,0,0,16.992273150603303,0.0,2.0
1628540913.3125,0,0,37.26121975662178,0.0,2.0
1628540913.78125,0,0,-21.146647082140095,0.0,2.0
1628540914.25,0,0,27.457178624015818,0.0,2.0
1628540914.71875,0,0,0.0,0.0,2.0
1628540915.1875,0,0,61.491641869255886,0.0,2.0
1628540915.65625,0,0,0.0,0.0,2.0
1628540916.125,0,0,49.89469293428159,0.0,2.0
1628540916.59375,0,0,15.289431576084478,0.0,2.0
1628540917.0625,0,0,0.0,0.0,2.0
1628540917.53125,0,0,69.67995292745948,0.0,2.0
1628540918.0,0,0,0.0,0.0,2.0
1628540918.46875,0,0,10.401315471136266,0.0,2.0
1628540918.9375,0,0,40.162026516378674,0.0,2.0
1628540919.40625,0,0,9.281843035133356,0.0,2.0
1628540919.875,0,0,9.742097272754414,0.0,2.0
1628540920.34375,0,0,13.72018195206774,0.0,2.0
1628540920.8125,0,0,0.0,0.0,2.0
1628540921.28125,0,0,0.0,0.0,2.0
1628540921.75,0,0,14.170094541066309,0.0,2.0
1628540922.21875,0,0,0.0,0.0,2.0
1628540922.6875,0,0,16.62622751529563,0.0,2.0
1628540923.15625,0,0,20.059687260007138,0.0,2.0
1628540923.625,0,0,0.0,0.0,2.0
1628540924.09375,0,0,0.0,0.0,2.0
1628540924.5625,0,0,0.0,0.0,2.0
1628540925.03125,0,0,140.66690338756803,0.0,2.0
1628540925.5,0,0,0.0,0.0,2.0
1628540925.96875,0,0,103.4847226967068,0.0,2.0
1628540926.4375,0,0,-11.414300419449734,0.0,2.0
1628540926.90625,0,0,-2.990001561451276,0.0,2.0
1628540927.375,0,0,63.66207426466638,0.0,2.0
1628540927.84375,0,0,-40.193556918431135,0.0,2.0
1628540928.3125,0,0,82.66858301957538,0.0,2.0
1628540928.78125,0,0,-1.4649543551061337,0.0,2.0
1628540929.25,0,0,4.020465462643406,0.0,2.0
1628540929.71875,0,0,9.276773529951624,0.0,2.0
1628540930.1875,0,0,0.0,0.0,2.0
1628540930.65625,0,0,14.881203958514726,0.0,2.0
1628540931.125,0,0,0.0,0.0,2.0
1628540931.59375,0,0,15.492265542018414,0.0,2.0
1628540932.0625,0,0,17.688948803555782,0.0,2.0
1628540932.53125,0,0,13.4324766110985,0.0,2.0
1628540933.0,0,0,11.47072858240134,0.0,2.0
1628540933.46875,0,0,0.0,0.0,2.0
1628540933.9375,0,0,15.599160285612543,0.0,2.0
1628540934.40625,0,0,11.77094890735226,0.0,2.0
1628540934.875,0,0,12.123422519466862,0.0,2.0
1628540935.34375,0,0,6.477792880350041,0.0,2.0
1628540935.8125,0,0,23.34959891465789,0.0,2.0
1628540936.28125,0,0,5.460872076724884,0.0,2.0
1628540936.75,0,0,7.506652046953657,0.0,2.0
1628540937.21875,0,0,14.548802982213346,0.0,2.0
1628540937.6875,0,0,0.0,0.0,2.0
1628540938.15625,0,0,13.180878836235154,0.0,2.0
1628540938.625,0,0,13.325752653570245,0.0,2.0
1628540939.09375,0,0,13.388013662797773,0.0,2.0
1628540939.5625,0,0,12.68265887755025,0.0,2.0
1628540940.03125,0,0,0.0,0.0,2.0
1628540940.5,0,0,15.318176652298856,0.0,2.0
1628540940.96875,0,0,9.057708469114669,0.0,2.0
1628540941.4375,0,0,11.411276023161157,0.0,2.0
1628540941.90625,0,0,11.625772365993706,0.0,2.0
1628540942.375,0,0,0.0,0.0,2.0
1628540942.84375,0,0,12.47723574990245,0.0,2.0
1628540943.3125,0,0,15.631559217305519,0.0,2.0
1628540943.78125,0,0,0.0,0.0,2.0
1628540944.25,0,0,16.37695173413702,0.0,2.0
1628540944.71875,0,0,0.0,0.0,2.0
1628540945.1875,0,0,17.15307795778874,0.0,2.0
1628540945.65625,0,0,12.892037325139368,0.0,2.0
1628540946.125,0,0,13.727423525073078,0.0,2.0
1628540946.59375,0,0,15.01979462985245,0.0,2.0
1628540947.0625,0,0,0.0,0.0,2.0
1628540947.53125,0,0,16.213310186779797,0.0,2.0
1628540948.0,0,0,14.265175807014046,0.0,2.0
1628540948.46875,0,0,15.783245063450677,0.0,2.0
1628540948.9375,0,0,17.026433881160806,0.0,2.0
1628540949.40625,0,0,0.0,0.0,2.0
1628540949.875,0,0,18.941540559790003,0.0,2.0
1628540950.34375,0,0,12.586550795949337,0.0,2.0
1628540950.8125,0,0,10.60805101033956,0.0,2.0
1628540951.28125,0,0,15.583537659106922,0.0,2.0
1628540951.75,0,0,12.564375728157511,0.0,2.0
1628540952.21875,0,0,18.24423881768037,0.0,2.0
1628540952.6875,0,0,12.497522949334313,0.0,2.0
1628540953.15625,0,0,14.345283043995583,0.0,2.0
1628540953.625,0,0,13.087987885893693,0.0,2.0
1628540954.09375,0,0,10.95709273068081,0.0,2.0
1628540954.5625,0,0,17.04971278497864,0.0,2.0
1628540955.03125,0,0,11.696457051547078,0.0,2.0
1628540955.5,0,0,0.0,0.0,2.0
1628540955.96875,0,0,28.6410436629301,0.0,2.0
1628540956.4375,0,0,11.377445317355189,0.0,2.0
1628540956.90625,0,0,0.0,0.0,2.0
1628540957.375,0,0,29.857627825928166,0.0,2.0
1628540957.84375,0,0,0.0,0.0,2.0
1628540958.3125,0,0,14.619361364603618,0.0,2.0
1628540958.78125,0,0,12.506489605985676,0.0,2.0
1628540959.25,0,0,2.035638441572707,0.0,2.0
1628540959.71875,0,0,12.66921315412474,0.0,2.0
1628540960.1875,0,0,0.0,0.0,2.0
1628540960.65625,0,0,15.236708500863609,0.0,2.0
1628540961.125,0,0,0.0,0.0,2.0
1628540961.59375,0,0,14.823919576588981,0.0,2.0
1628540962.0625,0,0,15.916504361428306,0.0,2.0
1628540962.53125,0,0,13.779467356686661,0.0,2.0
1628540963.0,0,0,11.198771145205814,0.0,2.0
1628540963.46875,0,0,0.0,0.0,2.0
1628540963.9375,0,0,19.671537275395067,0.0,2.0
1628540964.40625,0,0,11.656744947630902,0.0,2.0
1628540964.875,0,0,10.673416038167641,0.0,2.0
1628540965.34375,0,0,11.438642460312032,0.0,2.0
1628540965.8125,0,0,16.343874521298744,0.0,2.0
1628540966.28125,0,0,12.76434932107924,0.0,2.0
1628540966.75,0,0,11.532666109006612,0.0,2.0
1628540967.21875,0,0,9.779599580153365,0.0,2.0
1628540967.6875,0,0,14.418838092253383,0.0,2.0
1628540968.15625,0,0,13.31074271951441,0.0,2.0
1628540968.625,0,0,10.216145874031321,0.0,2.0
1628540969.09375,0,0,12.447224282594318,0.0,2.0
1628540969.5625,0,0,13.35352512704678,0.0,2.0
1628540970.03125,0,0,9.135388130590684,0.0,2.0
1628540970.5,0,0,15.615388817401525,0.0,2.0
1628540970.96875,0,0,0.0,0.0,2.0
1628540971.4375,0,0,18.85606757676368,0.0,2.0
1628540971.90625,0,0,27.22268552162608,0.0,2.0
1628540972.375,0,0,58.461771629790974,0.0,2.0
1628540972.84375,0,0,71.02878775172474,0.0,2.0
1628540973.3125,0,0,-22.153352917152375,0.0,2.0
1628540973.78125,0,0,0.0,0.0,2.0
1628540974.25,0,0,46.094555585710005,0.0,2.0
1628540974.71875,0,0,2.1659132137924493,0.0,2.0
1628540975.1875,0,0,2.8758710350068264,0.0,2.0
1628540975.65625,0,0,15.699025127134206,0.0,2.0
1628540976.125,0,0,0.0,0.0,2.0
1628540976.59375,0,0,15.7992694040055,0.0,2.0
1628540977.0625,0,0,17.187670623511746,0.0,2.0
1628540977.53125,0,0,17.94052123143103,0.0,2.0
1628540978.0,0,0,4.4596043823633,0.0,2.0
1628540978.46875,0,0,45.37518102521554,0.0,2.0
1628540978.9375,0,0,22.875104751256302,0.0,2.0
1628540979.40625,0,0,0.0,0.0,2.0
1628540979.875,0,0,28.918220763358057,0.0,2.0
1628540980.34375,0,0,0.0,0.0,2.0
1628540980.8125,0,0,12.717587251776775,0.0,2.0
1628540981.28125,0,0,0.0,0.0,2.0
1628540981.75,0,0,21.05971196745233,0.0,2.0
1628540982.21875,0,0,-1.1123458372447546,0.0,2.0
1628540982.6875,0,0,58.101987733156044,0.0,2.0
1628540983.15625,0,0,45.53594940277913,0.0,2.0
1628540983.625,0,0,0.0,0.0,2.0
1628540984.09375,0,0,25.97646841053668,0.0,2.0
1628540984.5625,0,0,18.925210059846002,0.0,2.0
1628540985.03125,0,0,0.0,0.0,2.0
1628540985.5,0,0,-0.5637936982505727,0.0,2.0
1628540985.96875,0,0,18.45023894726149,0.0,2.0
1628540986.4375,0,0,0.0,0.0,2.0
1628540986.90625,0,0,0.0,0.0,2.0
1628540987.375,0,0,18.12203477100404,0.0,2.0
1628540987.84375,0,0,0.0,0.0,2.0
1628540988.3125,0,0,14.313009979186278,0.0,2.0
1628540988.78125,0,0,17.67173471624864,0.0,2.0
1628540989.25,0,0,16.478526944829785,0.0,2.0
1628540989.71875,0,0,14.351609990924281,0.0,2.0
1628540990.1875,0,0,0.0,0.0,2.0
1628540990.65625,0,0,19.447235346710205,0.0,2.0
1628540991.125,0,0,0.0,0.0,2.0
1628540991.59375,0,0,14.590137439623426,0.0,2.0
1628540992.0625,0,0,16.343376204427962,0.0,2.0
1628540992.53125,0,0,13.811028679498843,0.0,2.0
1628540993.0,0,0,18.006491676365386,0.0,2.0
1628540993.46875,0,0,0.0,0.0,2.0
1628540993.9375,0,0,19.836128775830865,0.0,2.0
1628540994.40625,0,0,0.0,0.0,2.0
1628540994.875,0,0,9.992057737197838,0.0,2.0
1628540995.34375,0,0,20.113053126621487,0.0,2.0
1628540995.8125,0,0,16.442304198351827,0.0,2.0
1628540996.28125,0,0,14.070180690434254,0.0,2.0
1628540996.75,0,0,17.797290600594852,0.0,2.0
1628540997.21875,0,0,13.781676938904951,0.0,2.0
1628540997.6875,0,0,21.07067491847626,0.0,2.0
1628540998.15625,0,0,0.0,0.0,2.0
1628540998.625,0,0,14.013562947175787,0.0,2.0
1628540999.09375,0,0,7.959902087049145,0.0,2.0
1628540999.5625,0,0,11.325301815200314,0.0,2.0
1628541000.03125,0,0,15.348596406837991,0.0,2.0
1628541000.5,0,0,0.0,0.0,2.0
1628541000.96875,0,0,17.792870885082504,0.0,2.0
1628541001.4375,0,0,22.628604780831733,0.0,2.0
1628541001.90625,0,0,0.0,0.0,2.0
1628541002.375,0,0,9.799885367931681,0.0,2.0
1628541002.84375,0,0,11.052864609642816,0.0,2.0
1628541003.3125,0,0,19.17367460938721,0.0,2.0
1628541003.78125,0,0,0.0,0.0,2.0
1628541004.25,0,0,16.761478978749864,0.0,2.0
1628541004.71875,0,0,0.0,0.0,2.0
1628541005.1875,0,0,18.01967351276803,0.0,2.0
1628541005.65625,0,0,14.485166226760736,0.0,2.0
1628541006.125,0,0,13.04068548095275,0.0,2.0
1628541006.59375,0,0,0.0,0.0,2.0
1628541007.0625,0,0,0.0,0.0,2.0
1628541007.53125,0,0,17.149289461473916,0.0,2.0
1628541008.0,0,0,20.794590975508086,0.0,2.0
1628541008.46875,0,0,16.71350786666238,0.0,2.0
1628541008.9375,0,0,26.409338385140412,0.0,2.0
1628541009.40625,0,0,0.0,0.0,2.0
1628541009.875,0,0,4.337738034679652,0.0,2.0
1628541010.34375,0,0,-16.761062176182165,0.0,2.0
1628541010.8125,0,0,246.8973182130794,0.0,2.0
1628541011.28125,0,0,0.0,0.0,2.0
1628541011.75,0,0,69.37038208269983,0.0,2.0
1628541012.21875,0,0,0.0,0.0,2.0
1628541012.6875,0,0,174.98087024451092,0.0,2.0
1628541013.15625,0,0,0.0,0.0,2.0
1628541013.625,0,0,64.5606328491036,0.0,2.0
1628541014.09375,0,0,138.31982078088998,0.0,2.0
1628541014.5625,0,0,0.0,0.0,2.0
1628541015.03125,0,0,213.7659599108646,0.0,2.0
1628541015.5,0,0,88.21306001121495,0.0,2.0
1628541015.96875,0,0,-98.19830004077751,0.0,2.0
1628541016.4375,0,0,442.7948192479373,0.0,2.0
1628541016.90625,0,0,19.34487060159853,0.0,2.0
1628541017.375,0,0,127.21483262252568,0.0,2.0
1628541017.84375,0,0,0.0,0.0,2.0
1628541018.3125,0,0,28.61167170452736,0.0,2.0
1628541018.78125,0,0,0.0,0.0,2.0
1628541019.25,0,0,24.031904436121717,0.0,2.0
1628541019.71875,0,0,0.0,0.0,2.0
1628541020.1875,0,0,9.875509540051553,0.0,2.0
1628541020.65625,0,0,19.793818773478133,0.0,2.0
1628541021.125,0,0,3.904667836452374,0.0,2.0
1628541021.59375,0,0,5.592569841256772,0.0,2.0
1628541022.0625,0,0,18.473794456127024,0.0,2.0
1628541022.53125,0,0,11.628738386321876,0.0,2.0
1628541023.0,0,0,38.461502237707265,0.0,2.0
1628541023.46875,0,0,0.0,0.0,2.0
1628541023.9375,0,0,12.95624185303305,0.0,2.0
1628541024.40625,0,0,9.18380641920927,0.0,2.0
1628541024.875,0,0,5.634085623408767,0.0,2.0
1628541025.34375,0,0,0.0,0.0,2.0
1628541025.8125,0,0,7.6980226484444,0.0,2.0
1628541026.28125,0,0,7.857983855531984,0.0,2.0
1628541026.75,0,0,-1.345289835779489,0.0,2.0
1628541027.21875,0,0,8.32521744152889,0.0,2.0
1628541027.6875,0,0,9.347389379825497,0.0,2.0
1628541028.15625,0,0,0.0,0.0,2.0
1628541028.625,0,0,12.560990968504804,0.0,2.0
1628541029.09375,0,0,15.195755986588862,0.0,2.0
1628541029.5625,0,0,0.0,0.0,2.0
1628541030.03125,0,0,18.354890498513008,0.0,2.0
1628541030.5,0,0,18.66181750917018,0.0,2.0
1628541030.96875,0,0,0.0,0.0,2.0
1628541031.4375,0,0,18.54030470986996,0.0,2.0
1628541031.90625,0,0,19.524903755121034,0.0,2.0
1628541032.375,0,0,0.0,0.0,2.0
1628541032.84375,0,0,18.844976944039725,0.0,2.0
1628541033.3125,0,0,19.682060264691707,0.0,2.0
1628541033.78125,0,0,0.0,0.0,2.0
1628541034.25,0,0,17.250136525515277,0.0,2.0
1628541034.71875,0,0,15.580301197985388,0.0,2.0
1628541035.1875,0,0,15.616168565231133,0.0,2.0
1628541035.65625,0,0,16.572740973894224,0.0,2.0
1628541036.125,0,0,18.15097713878204,0.0,2.0
1628541036.59375,0,0,17.205188711624192,0.0,2.0
1628541037.0625,0,0,15.33523940101709,0.0,2.0
1628541037.53125,0,0,17.995722216212716,0.0,2.0
1628541038.0,0,0,0.0,0.0,2.0
1628541038.46875,0,0,18.408346178314638,0.0,2.0
1628541038.9375,0,0,0.0,0.0,2.0
1628541039.40625,0,0,16.516366320887915,0.0,2.0
1628541039.875,0,0,0.0,0.0,2.0
1628541040.34375,0,0,16.389949637111265,0.0,2.0
1628541040.8125,0,0,0.0,0.0,2.0
1628541041.28125,0,0,15.914308092925436,0.0,2.0
1628541041.75,0,0,0.0,0.0,2.0
1628541042.21875,0,0,19.90312504279723,0.0,2.0
1628541042.6875,0,0,0.0,0.0,2.0
1628541043.15625,0,0,21.58320245326314,0.0,2.0
1628541043.625,0,0,0.0,0.0,2.0
1628541044.09375,0,0,20.713309171579798,0.0,2.0
1628541044.5625,0,0,0.0,0.0,2.0
1628541045.03125,0,0,19.359269977609483,0.0,2.0
1628541045.5,0,0,0.0,0.0,2.0
1628541045.96875,0,0,18.183350239147877,0.0,2.0
1628541046.4375,0,0,0.0,0.0,2.0
1628541046.90625,0,0,16.512029538802814,0.0,2.0
1628541047.375,0,0,18.31704606055817,0.0,2.0
1628541047.84375,0,0,21.671651386689305,0.0,2.0
1628541048.3125,0,0,0.0,0.0,2.0
1628541048.78125,0,0,22.966791094084847,0.0,2.0
1628541049.25,0,0,17.294438988328306,0.0,2.0
1628541049.71875,0,0,21.070191807476604,0.0,2.0
1628541050.1875,0,0,18.796471358164744,0.0,2.0
1628541050.65625,0,0,20.89507698451281,0.0,2.0
1628541051.125,0,0,19.005581243803036,0.0,2.0
1628541051.59375,0,0,21.083601533893365,0.0,2.0
1628541052.0625,0,0,16.22655757549555,0.0,2.0
1628541052.53125,0,0,16.73489198522828,0.0,2.0
1628541053.0,0,0,16.827312838615157,0.0,2.0
1628541053.46875,0,0,17.813816214997647,0.0,2.0
1628541053.9375,0,0,18.17515510488908,0.0,2.0
1628541054.40625,0,0,0.0,0.0,2.0
1628541054.875,0,0,11.827568312060423,0.0,2.0
1628541055.34375,0,0,0.0,0.0,3.0
1628541055.8125,0,0,35.357661807900314,0.0,3.0
1628541056.28125,0,0,0.0,0.0,3.0
1628541056.75,0,0,99.744588771277,0.0,3.0
1628541057.21875,0,0,0.0,0.0,3.0
1628541057.6875,0,0,0.0,0.0,3.0
1628541058.15625,0,0,0.0,0.0,3.0
1628541058.625,0,0,66.38869242888975,0.0,3.0
1628541059.09375,0,0,0.0,0.0,3.0
1628541059.5625,0,0,162.6560337947181,0.0,3.0
1628541060.03125,0,0,8.199578132569183,0.0,3.0
1628541060.5,0,0,0.8326074843495035,0.0,3.0
1628541060.96875,0,0,38.68057717573591,0.0,3.0
1628541061.4375,0,0,5.364841935214873,0.0,3.0
1628541061.90625,0,0,23.126613373853992,0.0,3.0
1628541062.375,0,0,44.16598136096126,0.0,3.0
1628541062.84375,0,0,15.469238892519526,0.0,3.0
1628541063.3125,0,0,29.80711431590596,0.0,3.0
1628541063.78125,0,0,8.198896579879287,0.0,3.0
1628541064.25,0,0,8.323885178511615,0.0,3.0
1628541064.71875,0,0,23.102347586014094,0.0,3.0
1628541065.1875,0,0,0.0,0.0,3.0
1628541065.65625,0,0,9.589621523276008,0.0,3.0
1628541066.125,0,0,14.09570762525634,0.0,3.0
1628541066.59375,0,0,12.834396745726139,0.0,3.0
1628541067.0625,0,0,10.091244556243264,0.0,3.0
1628541067.53125,0,0,13.35996302808641,0.0,3.0
1628541068.0,0,0,28.53992112190746,0.0,3.0
1628541068.46875,0,0,-2.778296776027579,0.0,3.0
1628541068.9375,0,0,12.579856853064701,0.0,3.0
1628541069.40625,0,0,0.0,0.0,3.0
1628541069.875,0,0,9.901436378849125,0.0,3.0
1628541070.34375,0,0,38.65432451589626,0.0,3.0
1628541070.8125,0,0,10.164508060458008,0.0,3.0
1628541071.28125,0,0,0.0,0.0,3.0
1628541071.75,0,0,7.462712379385177,0.0,3.0
1628541072.21875,0,0,23.253104372175628,0.0,3.0
1628541072.6875,0,0,7.5570056631830935,0.0,3.0
1628541073.15625,0,0,12.208310423692266,0.0,3.0
1628541073.625,0,0,10.799321982641573,0.0,3.0
1628541074.09375,0,0,36.41512596193826,0.0,3.0
1628541074.5625,0,0,-14.35526056887295,0.0,3.0
1628541075.03125,0,0,14.455867734380687,0.0,3.0
1628541075.5,0,0,0.0,0.0,3.0
1628541075.96875,0,0,35.919790545828036,0.0,3.0
1628541076.4375,0,0,6.9686171940099495,0.0,3.0
1628541076.90625,0,0,7.958294018997975,0.0,3.0
1628541077.375,0,0,8.293755731829876,0.0,3.0
1628541077.84375,0,0,5.704535787250111,0.0,3.0
1628541078.3125,0,0,11.356317774345078,0.0,3.0
1628541078.78125,0,0,6.617875173077395,0.0,3.0
1628541079.25,0,0,12.10674865774082,0.0,3.0
1628541079.71875,0,0,0.0,0.0,3.0
1628541080.1875,0,0,31.563035234556743,0.0,3.0
1628541080.65625,0,0,0.0,0.0,3.0
1628541081.125,0,0,17.942142566809185,0.0,3.0
1628541081.59375,0,0,0.0,0.0,3.0
1628541082.0625,0,0,31.324319746319688,0.0,3.0
1628541082.53125,0,0,0.0,0.0,3.0
1628541083.0,0,0,16.49837911397135,0.0,3.0
1628541083.46875,0,0,9.753108415912745,0.0,3.0
1628541083.9375,0,0,0.0,0.0,3.0
1628541084.40625,0,0,21.508476607870694,0.0,3.0
1628541084.875,0,0,0.0,0.0,3.0
1628541085.34375,0,0,0.0,0.0,3.0
1628541085.8125,0,0,0.0,0.0,3.0
1628541086.28125,0,0,17.098514219169235,0.0,3.0
1628541086.75,0,0,10.334865344791794,0.0,3.0
1628541087.21875,0,0,0.0,0.0,3.0
1628541087.6875,0,0,11.69188873871354,0.0,3.0
1628541088.15625,0,0,-6.004505980342563,0.0,3.0
1628541088.625,0,0,11.230062056387307,0.0,3.0
1628541089.09375,0,0,9.657991497096381,0.0,3.0
1628541089.5625,0,0,0.0,0.0,3.0
1628541090.03125,0,0,0.0,0.0,3.0
1628541090.5,0,0,0.0,0.0,3.0
1628541090.96875,0,0,12.087154365050447,0.0,3.0
1628541091.4375,0,0,0.0,0.0,3.0
1628541091.90625,0,0,7.996910751701899,0.0,3.0
1628541092.375,0,0,4.963430602290985,0.0,3.0
1628541092.84375,0,0,9.407193094099888,0.0,3.0
1628541093.3125,0,0,12.219267204847782,0.0,3.0
1628541093.78125,0,0,0.0,0.0,3.0
1628541094.25,0,0,7.512155895878469,0.0,3.0
1628541094.71875,0,0,25.848998438118528,0.0,3.0
1628541095.1875,0,0,-2.767615885231186,0.0,3.0
1628541095.65625,0,0,0.0,0.0,3.0
1628541096.125,0,0,21.40223833798443,0.0,3.0
1628541096.59375,0,0,0.0,0.0,3.0
1628541097.0625,0,0,14.07470522654417,0.0,3.0
1628541097.53125,0,0,7.400986761446251,0.0,3.0
1628541098.0,0,0,0.0,0.0,3.0
1628541098.46875,0,0,29.338755779543206,0.0,3.0
1628541098.9375,0,0,0.0,0.0,3.0
1628541099.40625,0,0,16.43059206428589,0.0,3.0
1628541099.875,0,0,7.0901590361097835,0.0,3.0
1628541100.34375,0,0,13.68302355443809,0.0,3.0
1628541100.8125,0,0,12.16437093557898,0.0,3.0
1628541101.28125,0,0,0.0,0.0,3.0
1628541101.75,0,0,8.845611317707002,0.0,3.0
1628541102.21875,0,0,20.04337206027324,0.0,3.0
1628541102.6875,0,0,-6.849681244075121,0.0,3.0
1628541103.15625,0,0,15.043221674805435,0.0,3.0
1628541103.625,0,0,0.0,0.0,3.0
1628541104.09375,0,0,0.0,0.0,3.0
1628541104.5625,0,0,0.0,0.0,3.0
1628541105.03125,0,0,14.911861131558124,0.0,3.0
1628541105.5,0,0,7.636408668773948,0.0,3.0
1628541105.96875,0,0,11.102724218282297,0.0,3.0
1628541106.4375,0,0,13.960075173729113,0.0,3.0
1628541106.90625,0,0,1.6271696374156432,0.0,3.0
1628541107.375,0,0,16.741267382872653,0.0,3.0
1628541107.84375,0,0,16.144115024385275,0.0,3.0
1628541108.3125,0,0,12.00798606414393,0.0,3.0
1628541108.78125,0,0,0.0,0.0,3.0
1628541109.25,0,0,15.677415443564305,0.0,3.0
1628541109.71875,0,0,0.0,0.0,3.0
1628541110.1875,0,0,15.458043849510481,0.0,3.0
1628541110.65625,0,0,0.0,0.0,3.0
1628541111.125,0,0,20.49103628590364,0.0,3.0
1628541111.59375,0,0,11.731325221140207,0.0,3.0
1628541112.0625,0,0,10.212553004085045,0.0,3.0
1628541112.53125,0,0,16.25566098899403,0.0,3.0
1628541113.0,0,0,0.0,0.0,3.0
1628541113.46875,0,0,11.500280072996558,0.0,3.0
1628541113.9375,0,0,13.526990479181297,0.0,3.0
1628541114.40625,0,0,14.643221167176492,0.0,3.0
1628541114.875,0,0,12.214365284577333,0.0,3.0
1628541115.34375,0,0,0.0,0.0,3.0
1628541115.8125,0,0,13.566287065510789,0.0,3.0
1628541116.28125,0,0,0.0,0.0,3.0
1628541116.75,0,0,11.819873453110853,0.0,3.0
1628541117.21875,0,0,10.453007338638932,0.0,3.0
1628541117.6875,0,0,12.11147597413519,0.0,3.0
1628541118.15625,0,0,10.81378615872013,0.0,3.0
1628541118.625,0,0,11.5469768382756,0.0,3.0
1628541119.09375,0,0,16.926786791659158,0.0,3.0
1628541119.5625,0,0,0.0,0.0,3.0
1628541120.03125,0,0,16.598455816081245,0.0,3.0
1628541120.5,0,0,0.0,0.0,3.0
1628541120.96875,0,0,16.32687982659195,0.0,3.0
1628541121.4375,0,0,0.0,0.0,3.0
1628541121.90625,0,0,13.804129589091346,0.0,3.0
1628541122.375,0,0,11.55913633190145,0.0,3.0
1628541122.84375,0,0,14.797631111651002,0.0,3.0
1628541123.3125,0,0,10.207334480589386,0.0,3.0
1628541123.78125,0,0,10.824923079043886,0.0,3.0
1628541124.25,0,0,12.349292021128084,0.0,3.0
1628541124.71875,0,0,14.72149681084447,0.0,3.0
1628541125.1875,0,0,0.0,0.0,3.0
1628541125.65625,0,0,11.15061501850427,0.0,3.0
1628541126.125,0,0,11.605210627641435,0.0,3.0
1628541126.59375,0,0,10.69824320228329,0.0,3.0
1628541127.0625,0,0,27.39362989365151,0.0,3.0
1628541127.53125,0,0,0.0,0.0,3.0
1628541128.0,0,0,10.722827068128662,0.0,3.0
1628541128.46875,0,0,9.427887629365886,0.0,3.0
1628541128.9375,0,0,9.448461607572417,0.0,3.0
1628541129.40625,0,0,6.123739897271074,0.0,3.0
1628541129.875,0,0,17.34473591586225,0.0,3.0
1628541130.34375,0,0,0.0,0.0,3.0
1628541130.8125,0,0,12.665150785245691,0.0,3.0
1628541131.28125,0,0,3.3846856315841722,0.0,3.0
1628541131.75,0,0,9.674694153410694,0.0,3.0
1628541132.21875,0,0,15.085330746091685,0.0,3.0
1628541132.6875,0,0,0.0,0.0,3.0
1628541133.15625,0,0,13.233698916548509,0.0,3.0
1628541133.625,0,0,0.0,0.0,3.0
1628541134.09375,0,0,21.042458866001937,0.0,3.0
1628541134.5625,0,0,13.012553946441235,0.0,3.0
1628541135.03125,0,0,0.0,0.0,3.0
1628541135.5,0,0,27.55906420857051,0.0,3.0
1628541135.96875,0,0,0.0,0.0,3.0
1628541136.4375,0,0,12.818075058068745,0.0,3.0
1628541136.90625,0,0,12.549268805519343,0.0,3.0
1628541137.375,0,0,6.820117503077284,0.0,3.0
1628541137.84375,0,0,0.0,0.0,3.0
1628541138.3125,0,0,16.946686564583285,0.0,3.0
1628541138.78125,0,0,14.069969971531878,0.0,3.0
1628541139.25,0,0,0.0,0.0,3.0
1628541139.71875,0,0,14.700988546276827,0.0,3.0
1628541140.1875,0,0,0.0,0.0,3.0
1628541140.65625,0,0,12.571450297108,0.0,3.0
1628541141.125,0,0,14.90866044618945,0.0,3.0
1628541141.59375,0,0,17.117457445023106,0.0,3.0
1628541142.0625,0,0,14.856087743481634,0.0,3.0
1628541142.53125,0,0,0.0,0.0,3.0
1628541143.0,0,0,12.914288333690628,0.0,3.0
1628541143.46875,0,0,21.984964494090676,0.0,3.0
1628541143.9375,0,0,13.894095096173025,0.0,3.0
1628541144.40625,0,0,15.066812816924077,0.0,3.0
1628541144.875,0,0,0.0,0.0,3.0
1628541145.34375,0,0,22.579006293274887,0.0,3.0
1628541145.8125,0,0,0.0,0.0,3.0
1628541146.28125,0,0,18.135611630686473,0.0,3.0
1628541146.75,0,0,16.659593181208415,0.0,3.0
1628541147.21875,0,0,0.0,0.0,3.0
1628541147.6875,0,0,20.476732509201337,0.0,3.0
1628541148.15625,0,0,0.0,0.0,3.0
1628541148.625,0,0,16.28166030107958,0.0,3.0
1628541149.09375,0,0,0.0,0.0,3.0
1628541149.5625,0,0,15.291206193723994,0.0,3.0
1628541150.03125,0,0,0.0,0.0,3.0
1628541150.5,0,0,16.964127599004275,0.0,3.0
1628541150.96875,0,0,16.129681784746534,0.0,3.0
1628541151.4375,0,0,0.0,0.0,3.0
1628541151.90625,0,0,20.017336643793566,0.0,3.0
1628541152.375,0,0,0.0,0.0,3.0
1628541152.84375,0,0,16.456387219505444,0.0,3.0
1628541153.3125,0,0,0.0,0.0,3.0
1628541153.78125,0,0,16.44269943134032,0.0,3.0
1628541154.25,0,0,18.429323076834635,0.0,3.0
1628541154.71875,0,0,0.0,0.0,3.0
1628541155.1875,0,0,18.631505488828324,0.0,3.0
1628541155.65625,0,0,10.191924591554137,0.0,3.0
1628541156.125,0,0,14.745715222649471,0.0,3.0
1628541156.59375,0,0,16.915054933838643,0.0,3.0
1628541157.0625,0,0,0.0,0.0,3.0
1628541157.53125,0,0,27.60150090519879,0.0,3.0
1628541158.0,0,0,20.433438853551635,0.0,3.0
1628541158.46875,0,0,20.72993507869725,0.0,3.0
1628541158.9375,0,0,14.414422387113929,0.0,3.0
1628541159.40625,0,0,0.0,0.0,3.0
1628541159.875,0,0,16.365136366336383,0.0,3.0
1628541160.34375,0,0,0.0,0.0,3.0
1628541160.8125,0,0,15.434532007232937,0.0,3.0
1628541161.28125,0,0,0.0,0.0,3.0
1628541161.75,0,0,13.261058679696797,0.0,3.0
1628541162.21875,0,0,0.0,0.0,3.0
1628541162.6875,0,0,18.412894802676426,0.0,3.0
1628541163.15625,0,0,13.203766126315733,0.0,3.0
1628541163.625,0,0,0.0,0.0,3.0
1628541164.09375,0,0,17.046033918070982,0.0,3.0
1628541164.5625,0,0,11.643002911731017,0.0,3.0
1628541165.03125,0,0,9.68291061400262,0.0,3.0
1628541165.5,0,0,12.542486772126596,0.0,3.0
1628541165.96875,0,0,16.155533631164193,0.0,3.0
1628541166.4375,0,0,16.900689236817684,0.0,3.0
1628541166.90625,0,0,0.0,0.0,3.0
1628541167.375,0,0,16.486328735240328,0.0,3.0
1628541167.84375,0,0,0.0,0.0,3.0
1628541168.3125,0,0,17.58468179958827,0.0,3.0
1628541168.78125,0,0,11.721219423975535,0.0,3.0
1628541169.25,0,0,0.0,0.0,3.0
1628541169.71875,0,0,-8.014587158864376,0.0,3.0
1628541170.1875,0,0,17.70016616925241,0.0,3.0
1628541170.65625,0,0,0.0,0.0,3.0
1628541171.125,0,0,13.282190564492344,0.0,3.0
1628541171.59375,0,0,0.0,0.0,3.0
1628541172.0625,0,0,15.179056225726582,0.0,3.0
1628541172.53125,0,0,13.912838449607749,0.0,3.0
1628541173.0,0,0,15.388680465947985,0.0,3.0
1628541173.46875,0,0,12.777858251191292,0.0,3.0
1628541173.9375,0,0,0.0,0.0,3.0
1628541174.40625,0,0,19.486980322764225,0.0,3.0
1628541174.875,0,0,0.0,0.0,3.0
1628541175.34375,0,0,14.749970888038469,0.0,3.0
1628541175.8125,0,0,12.614970815578898,0.0,3.0
1628541176.28125,0,0,14.032699082184415,0.0,3.0
1628541176.75,0,0,16.932592447793162,0.0,3.0
1628541177.21875,0,0,0.0,0.0,3.0
1628541177.6875,0,0,14.30111742602081,0.0,3.0
1628541178.15625,0,0,16.288834581484505,0.0,3.0
1628541178.625,0,0,0.0,0.0,3.0
1628541179.09375,0,0,14.294306868772324,0.0,3.0
1628541179.5625,0,0,0.0,0.0,3.0
1628541180.03125,0,0,14.117886318687416,0.0,3.0
1628541180.5,0,0,0.0,0.0,3.0
1628541180.96875,0,0,13.580040732707943,0.0,3.0
1628541181.4375,0,0,12.296673293740213,0.0,3.0
1628541181.90625,0,0,11.299817375906175,0.0,3.0
1628541182.375,0,0,12.684534626254203,0.0,3.0
1628541182.84375,0,0,0.0,0.0,3.0
1628541183.3125,0,0,11.218910576703934,0.0,3.0
1628541183.78125,0,0,13.083038264620074,0.0,3.0
1628541184.25,0,0,9.633204850804857,0.0,3.0
1628541184.71875,0,0,19.66531992579482,0.0,3.0
1628541185.1875,0,0,0.0,0.0,3.0
1628541185.65625,0,0,21.674631044180767,0.0,3.0
1628541186.125,0,0,0.0,0.0,3.0
1628541186.59375,0,0,22.631176339214672,0.0,3.0
1628541187.0625,0,0,0.0,0.0,3.0
1628541187.53125,0,0,14.551635402913245,0.0,3.0
1628541188.0,0,0,0.0,0.0,3.0
1628541188.46875,0,0,5.900395919337984,0.0,3.0
1628541188.9375,0,0,12.692710193162059,0.0,3.0
1628541189.40625,0,0,12.359248288352218,0.0,3.0
1628541189.875,0,0,8.847727148904685,0.0,3.0
1628541190.34375,0,0,0.0,0.0,3.0
1628541190.8125,0,0,17.2084513365883,0.0,3.0
1628541191.28125,0,0,0.0,0.0,3.0
1628541191.75,0,0,12.439457608687487,0.0,3.0
1628541192.21875,0,0,-0.35539604871267216,0.0,3.0
1628541192.6875,0,0,13.608406241931029,0.0,3.0
1628541193.15625,0,0,14.988043438810005,0.0,3.0
1628541193.625,0,0,0.0,0.0,3.0
1628541194.09375,0,0,18.24733970048831,0.0,3.0
1628541194.5625,0,0,0.0,0.0,3.0
1628541195.03125,0,0,31.27705955057099,0.0,3.0
1628541195.5,0,0,-31.190131553546813,0.0,3.0
1628541195.96875,0,0,23.157590636073788,0.0,3.0
1628541196.4375,0,0,0.0,0.0,3.0
1628541196.90625,0,0,0.0,0.0,3.0
1628541197.375,0,0,16.965993142368735,0.0,3.0
1628541197.84375,0,0,0.0,0.0,3.0
1628541198.3125,0,0,15.668683759160556,0.0,3.0
1628541198.78125,0,0,0.0,0.0,3.0
1628541199.25,0,0,13.279889290515898,0.0,3.0
1628541199.71875,0,0,15.43063601438289,0.0,3.0
1628541200.1875,0,0,0.0,0.0,3.0
1628541200.65625,0,0,17.405996946179933,0.0,3.0
1628541201.125,0,0,0.0,0.0,3.0
1628541201.59375,0,0,14.158821691506812,0.0,3.0
1628541202.0625,0,0,15.2324147340414,0.0,3.0
1628541202.53125,0,0,15.529678408672831,0.0,3.0
1628541203.0,0,0,19.814285606024143,0.0,3.0
1628541203.46875,0,0,0.0,0.0,3.0
1628541203.9375,0,0,16.499596106937272,0.0,3.0
1628541204.40625,0,0,12.794748486761911,0.0,3.0
1628541204.875,0,0,10.816191864963926,0.0,3.0
1628541205.34375,0,0,13.494126676316665,0.0,3.0
1628541205.8125,0,0,15.323926808908135,0.0,3.0
