timestamp,mean_pulse_rate,pulse_rate_std,mean_pulse_amplitude,pulse_amplitude_std,block
1628539894.59375,0,0,-10.925917157393618,0.0,1.0
1628539895.0625,0,0,454.43030100852627,0.0,1.0
1628539895.53125,0,0,62.291325475038064,0.0,1.0
1628539896.0,0,0,48.82590232429835,0.0,1.0
1628539896.46875,0,0,27.42547785669582,0.0,1.0
1628539896.9375,0,0,85.88385881918532,0.0,1.0
1628539897.40625,0,0,0.0,0.0,1.0
1628539897.875,0,0,0.0,0.0,1.0
1628539898.34375,0,0,0.0,0.0,1.0
1628539898.8125,0,0,-20.79323586185092,0.0,1.0
1628539899.28125,0,0,-38.231060147930364,0.0,1.0
1628539899.75,0,0,145.171011873522,0.0,1.0
1628539900.21875,0,0,0.0,0.0,1.0
1628539900.6875,0,0,115.23113457121465,0.0,1.0
1628539901.15625,0,0,0.0,0.0,1.0
1628539901.625,0,0,-16.817931592417175,0.0,1.0
1628539902.09375,0,0,13.839496706027196,0.0,1.0
1628539902.5625,0,0,0.0,0.0,1.0
1628539903.03125,0,0,22.872605435822827,0.0,1.0
1628539903.5,0,0,0.0,0.0,1.0
1628539903.96875,0,0,58.474371922262584,0.0,1.0
1628539904.4375,0,0,0.0,0.0,1.0
1628539904.90625,0,0,-5.856826409870949,0.0,1.0
1628539905.375,0,0,120.75838412639652,0.0,1.0
1628539905.84375,0,0,9.026919107793223,0.0,1.0
1628539906.3125,0,0,25.485169883680523,0.0,1.0
1628539906.78125,0,0,0.0,0.0,1.0
1628539907.25,0,0,30.16845900934109,0.0,1.0
1628539907.71875,0,0,0.0,0.0,1.0
1628539908.1875,0,0,22.43290235516803,0.0,1.0
1628539908.65625,0,0,30.71068003395782,0.0,1.0
1628539909.125,0,0,0.0,0.0,1.0
1628539909.59375,0,0,33.72358647976042,0.0,1.0
1628539910.0625,0,0,-2.397229805857414,0.0,1.0
1628539910.53125,0,0,20.76659912198844,0.0,1.0
1628539911.0,0,0,0.0,0.0,1.0
1628539911.46875,0,0,26.84525253951232,0.0,1.0
1628539911.9375,0,0,0.0,0.0,1.0
1628539912.40625,0,0,0.0,0.0,1.0
1628539912.875,0,0,17.575486742839185,0.0,1.0
1628539913.34375,0,0,9.320809179126815,0.0,1.0
1628539913.8125,0,0,10.49089244382291,0.0,1.0
1628539914.28125,0,0,17.44231618578311,0.0,1.0
1628539914.75,0,0,12.145501519874356,0.0,1.0
1628539915.21875,0,0,18.26756779201048,0.0,1.0
1628539915.6875,0,0,0.0,0.0,1.0
1628539916.15625,0,0,20.965861867718864,0.0,1.0
1628539916.625,0,0,18.94081571618829,0.0,1.0
1628539917.09375,0,0,15.883378694942326,0.0,1.0
1628539917.5625,0,0,0.0,0.0,1.0
1628539918.03125,0,0,20.161542666777375,0.0,1.0
1628539918.5,0,0,20.09794717233014,0.0,1.0
1628539918.96875,0,0,17.250710741136682,0.0,1.0
1628539919.4375,0,0,26.271077963916497,0.0,1.0
1628539919.90625,0,0,0.0,0.0,1.0
1628539920.375,0,0,24.496707959452497,0.0,1.0
1628539920.84375,0,0,0.0,0.0,1.0
1628539921.3125,0,0,22.98684079750156,0.0,1.0
1628539921.78125,0,0,16.705994232879146,0.0,1.0
1628539922.25,0,0,7.967842754546888,0.0,1.0
1628539922.71875,0,0,19.72762756524663,0.0,1.0
1628539923.1875,0,0,0.0,0.0,1.0
1628539923.65625,0,0,16.3427228930754,0.0,1.0
1628539924.125,0,0,19.027780794606294,0.0,1.0
1628539924.59375,0,0,0.0,0.0,1.0
1628539925.0625,0,0,14.221254626204072,0.0,1.0
1628539925.53125,0,0,13.880184940540003,0.0,1.0
1628539926.0,0,0,17.04435867687879,0.0,1.0
1628539926.46875,0,0,0.0,0.0,1.0
1628539926.9375,0,0,16.186337230018925,0.0,1.0
1628539927.40625,0,0,18.32014415053731,0.0,1.0
1628539927.875,0,0,0.0,0.0,1.0
1628539928.34375,0,0,19.711749518846236,0.0,1.0
1628539928.8125,0,0,0.0,0.0,1.0
1628539929.28125,0,0,21.57443176759354,0.0,1.0
1628539929.75,0,0,25.418081861872928,0.0,1.0
1628539930.21875,0,0,22.826514629008013,0.0,1.0
1628539930.6875,0,0,22.75167248019973,0.0,1.0
1628539931.15625,0,0,20.19160199553088,0.0,1.0
1628539931.625,0,0,24.481724879586405,0.0,1.0
1628539932.09375,0,0,0.0,0.0,1.0
1628539932.5625,0,0,19.413428767069636,0.0,1.0
1628539933.03125,0,0,20.135017680691277,0.0,1.0
1628539933.5,0,0,0.0,0.0,1.0
1628539933.96875,0,0,22.409229783980816,0.0,1.0
1628539934.4375,0,0,0.0,0.0,1.0
1628539934.90625,0,0,24.04625807195593,0.0,1.0
1628539935.375,0,0,0.0,0.0,1.0
1628539935.84375,0,0,18.8630734469534,0.0,1.0
1628539936.3125,0,0,27.42417107097776,0.0,1.0
1628539936.78125,0,0,21.97786050369371,0.0,1.0
1628539937.25,0,0,23.291938364996252,0.0,1.0
1628539937.71875,0,0,0.0,0.0,1.0
1628539938.1875,0,0,26.026721796587605,0.0,1.0
1628539938.65625,0,0,29.391243756245473,0.0,1.0
1628539939.125,0,0,22.342893657480133,0.0,1.0
1628539939.59375,0,0,29.439954402256316,0.0,1.0
1628539940.0625,0,0,24.064874639577845,0.0,1.0
1628539940.53125,0,0,25.756246300427733,0.0,1.0
1628539941.0,0,0,0.0,0.0,1.0
1628539941.46875,0,0,36.65061564969721,0.0,1.0
1628539941.9375,0,0,0.0,0.0,1.0
1628539942.40625,0,0,21.731289590013183,0.0,1.0
1628539942.875,0,0,22.8170645176334,0.0,1.0
1628539943.34375,0,0,15.556688227149365,0.0,1.0
1628539943.8125,0,0,20.016827001929993,0.0,1.0
1628539944.28125,0,0,0.0,0.0,1.0
1628539944.75,0,0,25.25081418969262,0.0,1.0
1628539945.21875,0,0,12.915973111948468,0.0,1.0
1628539945.6875,0,0,7.633924699246357,0.0,1.0
1628539946.15625,0,0,25.002420946619225,0.0,1.0
1628539946.625,0,0,0.0,0.0,1.0
1628539947.09375,0,0,23.76620298545821,0.0,1.0
1628539947.5625,0,0,23.655267552826782,0.0,1.0
1628539948.03125,0,0,18.16267324111128,0.0,1.0
1628539948.5,0,0,0.0,0.0,1.0
1628539948.96875,0,0,26.124936226206852,0.0,1.0
1628539949.4375,0,0,0.0,0.0,1.0
1628539949.90625,0,0,16.958352133792573,0.0,1.0
1628539950.375,0,0,22.311862759463583,0.0,1.0
1628539950.84375,0,0,14.433117507311746,0.0,1.0
1628539951.3125,0,0,27.863582186710914,0.0,1.0
1628539951.78125,0,0,0.0,0.0,1.0
1628539952.25,0,0,25.036584423070707,0.0,1.0
1628539952.71875,0,0,0.0,0.0,1.0
1628539953.1875,0,0,32.091095089874564,0.0,1.0
1628539953.65625,0,0,21.55641240762562,0.0,1.0
1628539954.125,0,0,22.407711481415756,0.0,1.0
1628539954.59375,0,0,18.847601330622176,0.0,1.0
1628539955.0625,0,0,15.91943760425351,0.0,1.0
1628539955.53125,0,0,23.34730089812797,0.0,1.0
1628539956.0,0,0,25.778220037348557,0.0,1.0
1628539956.46875,0,0,11.273175846407725,0.0,1.0
1628539956.9375,0,0,24.119960894231454,0.0,1.0
1628539957.40625,0,0,23.080499677878542,0.0,1.0
1628539957.875,0,0,0.0,0.0,1.0
1628539958.34375,0,0,25.53773025488155,0.0,1.0
1628539958.8125,0,0,0.0,0.0,1.0
1628539959.28125,0,0,22.148458035653377,0.0,1.0
1628539959.75,0,0,19.061885532621538,0.0,1.0
1628539960.21875,0,0,20.00787265009869,0.0,1.0
1628539960.6875,0,0,18.578327145837992,0.0,1.0
1628539961.15625,0,0,20.472697578078957,0.0,1.0
1628539961.625,0,0,0.0,0.0,1.0
1628539962.09375,0,0,20.901893620144005,0.0,1.0
1628539962.5625,0,0,0.0,0.0,1.0
1628539963.03125,0,0,23.233442631255773,0.0,1.0
1628539963.5,0,0,0.0,0.0,1.0
1628539963.96875,0,0,26.630880796410125,0.0,1.0
1628539964.4375,0,0,25.021736725557854,0.0,1.0
1628539964.90625,0,0,25.455735649701204,0.0,1.0
1628539965.375,0,0,33.90327705498405,0.0,1.0
1628539965.84375,0,0,8.577040910975777,0.0,1.0
1628539966.3125,0,0,24.983574499143756,0.0,1.0
1628539966.78125,0,0,22.62325467050143,0.0,1.0
1628539967.25,0,0,21.0552488251199,0.0,1.0
1628539967.71875,0,0,18.570346219145677,0.0,1.0
1628539968.1875,0,0,20.96484793604526,0.0,1.0
1628539968.65625,0,0,22.22900480903817,0.0,1.0
1628539969.125,0,0,22.022001522270525,0.0,1.0
1628539969.59375,0,0,0.0,0.0,1.0
1628539970.0625,0,0,21.383038640601253,0.0,1.0
1628539970.53125,0,0,0.0,0.0,1.0
1628539971.0,0,0,19.441814250221604,0.0,1.0
1628539971.46875,0,0,25.267095738145148,0.0,1.0
1628539971.9375,0,0,0.0,0.0,1.0
1628539972.40625,0,0,24.667388932638495,0.0,1.0
1628539972.875,0,0,0.0,0.0,1.0
1628539973.34375,0,0,23.314970120735683,0.0,1.0
1628539973.8125,0,0,20.63728440871919,0.0,1.0
1628539974.28125,0,0,17.150999456565724,0.0,1.0
1628539974.75,0,0,12.898376583512217,0.0,1.0
1628539975.21875,0,0,11.125695843226094,0.0,1.0
1628539975.6875,0,0,17.56366153088038,0.0,1.0
1628539976.15625,0,0,0.0,0.0,1.0
1628539976.625,0,0,17.848203421464866,0.0,1.0
1628539977.09375,0,0,0.0,0.0,1.0
1628539977.5625,0,0,17.40465548538645,0.0,1.0
1628539978.03125,0,0,13.055527181550621,0.0,1.0
1628539978.5,0,0,9.997104372804642,0.0,1.0
1628539978.96875,0,0,17.393019627298457,0.0,1.0
1628539979.4375,0,0,0.0,0.0,1.0
1628539979.90625,0,0,18.732322753030235,0.0,1.0
1628539980.375,0,0,0.0,0.0,1.0
1628539980.84375,0,0,18.668613061780665,0.0,1.0
1628539981.3125,0,0,19.051699580827258,0.0,1.0
1628539981.78125,0,0,15.153860304360542,0.0,1.0
1628539982.25,0,0,17.210079020027,0.0,1.0
1628539982.71875,0,0,0.0,0.0,1.0
1628539983.1875,0,0,18.547441608725475,0.0,1.0
1628539983.65625,0,0,15.975428896266061,0.0,1.0
1628539984.125,0,0,12.091670332645373,0.0,1.0
1628539984.59375,0,0,14.522726983573396,0.0,1.0
1628539985.0625,0,0,10.622312521288897,0.0,1.0
1628539985.53125,0,0,17.297100415304147,0.0,1.0
1628539986.0,0,0,0.0,0.0,1.0
1628539986.46875,0,0,14.686816315840508,0.0,1.0
1628539986.9375,0,0,15.55607157159279,0.0,1.0
1628539987.40625,0,0,11.309231084317496,0.0,1.0
1628539987.875,0,0,19.142402059312243,0.0,1.0
1628539988.34375,0,0,0.0,0.0,1.0
1628539988.8125,0,0,16.082914635318588,0.0,1.0
1628539989.28125,0,0,0.0,0.0,1.0
1628539989.75,0,0,15.841594157874033,0.0,1.0
1628539990.21875,0,0,18.509478711891095,0.0,1.0
1628539990.6875,0,0,0.0,0.0,1.0
1628539991.15625,0,0,23.15403469984332,0.0,1.0
1628539991.625,0,0,23.97468692912193,0.0,1.0
1628539992.09375,0,0,0.0,0.0,1.0
1628539992.5625,0,0,24.745098836980176,0.0,1.0
1628539993.03125,0,0,0.0,0.0,1.0
1628539993.5,0,0,20.934176986105676,0.0,1.0
1628539993.96875,0,0,23.464070501927782,0.0,1.0
1628539994.4375,0,0,0.0,0.0,1.0
1628539994.90625,0,0,22.354965368464995,0.0,1.0
1628539995.375,0,0,23.079247676312765,0.0,1.0
1628539995.84375,0,0,0.0,0.0,1.0
1628539996.3125,0,0,26.9293037877195,0.0,1.0
1628539996.78125,0,0,0.0,0.0,1.0
1628539997.25,0,0,17.526930410133723,0.0,1.0
1628539997.71875,0,0,16.480863695842977,0.0,1.0
1628539998.1875,0,0,13.698325044980388,0.0,1.0
1628539998.65625,0,0,17.905989543771877,0.0,1.0
1628539999.125,0,0,0.0,0.0,1.0
1628539999.59375,0,0,0.0,0.0,1.0
1628540000.0625,0,0,19.056281130504367,0.0,1.0
1628540000.53125,0,0,0.0,0.0,1.0
1628540001.0,0,0,19.16340421357637,0.0,1.0
1628540001.46875,0,0,0.0,0.0,1.0
1628540001.9375,0,0,22.322601474473867,0.0,1.0
1628540002.40625,0,0,0.0,0.0,1.0
1628540002.875,0,0,19.797094396230534,0.0,1.0
1628540003.34375,0,0,20.129909808458578,0.0,1.0
1628540003.8125,0,0,15.737075626363893,0.0,1.0
1628540004.28125,0,0,17.514576050039633,0.0,1.0
1628540004.75,0,0,0.0,0.0,1.0
1628540005.21875,0,0,19.864373868604936,0.0,1.0
1628540005.6875,0,0,20.261356379184786,0.0,1.0
1628540006.15625,0,0,17.698692766555244,0.0,1.0
1628540006.625,0,0,20.853482408809832,0.0,1.0
1628540007.09375,0,0,0.0,0.0,1.0
1628540007.5625,0,0,19.594410046997442,0.0,1.0
1628540008.03125,0,0,22.360619968012884,0.0,1.0
1628540008.5,0,0,0.0,0.0,1.0
1628540008.96875,0,0,32.366454114956156,0.0,1.0
1628540009.4375,0,0,0.0,0.0,1.0
1628540009.90625,0,0,27.650258707703077,0.0,1.0
1628540010.375,0,0,26.74960892750459,0.0,1.0
1628540010.84375,0,0,0.0,0.0,1.0
1628540011.3125,0,0,23.117918495404894,0.0,1.0
1628540011.78125,0,0,0.0,0.0,1.0
1628540012.25,0,0,21.968534910066342,0.0,1.0
1628540012.71875,0,0,26.259989794490874,0.0,1.0
1628540013.1875,0,0,0.0,0.0,1.0
1628540013.65625,0,0,23.22444031389113,0.0,1.0
1628540014.125,0,0,0.0,0.0,1.0
1628540014.59375,0,0,26.877844452054582,0.0,1.0
1628540015.0625,0,0,26.806510446453004,0.0,1.0
1628540015.53125,0,0,0.0,0.0,1.0
1628540016.0,0,0,23.730053431714474,0.0,1.0
1628540016.46875,0,0,0.0,0.0,1.0
1628540016.9375,0,0,27.5853309112539,0.0,1.0
1628540017.40625,0,0,24.583835629242664,0.0,1.0
1628540017.875,0,0,0.0,0.0,1.0
1628540018.34375,0,0,24.09201256361017,0.0,1.0
1628540018.8125,0,0,27.344284192993108,0.0,1.0
1628540019.28125,0,0,0.0,0.0,1.0
1628540019.75,0,0,39.407687871566324,0.0,1.0
1628540020.21875,0,0,0.0,0.0,1.0
1628540020.6875,0,0,-3.533464481719819,0.0,1.0
1628540021.15625,0,0,0.0,0.0,1.0
1628540021.625,0,0,190.6706129390464,0.0,1.0
1628540022.09375,0,0,154.82118639640635,0.0,1.0
1628540022.5625,0,0,0.0,0.0,1.0
1628540023.03125,0,0,86.86667694832894,0.0,1.0
1628540023.5,0,0,0.0,0.0,1.0
1628540023.96875,0,0,53.35919118178315,0.0,1.0
1628540024.4375,0,0,27.913481586809823,0.0,1.0
1628540024.90625,0,0,0.0,0.0,1.0
1628540025.375,0,0,13.887162717668474,0.0,1.0
1628540025.84375,0,0,20.285222584959236,0.0,1.0
1628540026.3125,0,0,18.73839294414664,0.0,1.0
1628540026.78125,0,0,37.06803278685241,0.0,1.0
1628540027.25,0,0,32.85300134684939,0.0,1.0
1628540027.71875,0,0,0.0,0.0,1.0
1628540028.1875,0,0,36.60836457550758,0.0,1.0
1628540028.65625,0,0,0.0,0.0,1.0
1628540029.125,0,0,30.054730289695858,0.0,1.0
1628540029.59375,0,0,0.0,0.0,1.0
1628540030.0625,0,0,31.666816136377502,0.0,1.0
1628540030.53125,0,0,0.0,0.0,1.0
1628540031.0,0,0,25.72956390478436,0.0,1.0
1628540031.46875,0,0,16.10630887828146,0.0,1.0
1628540031.9375,0,0,10.726337859782848,0.0,1.0
1628540032.40625,0,0,21.247567953933956,0.0,1.0
1628540032.875,0,0,0.0,0.0,1.0
1628540033.34375,0,0,21.154476308605325,0.0,1.0
1628540033.8125,0,0,22.010453807772837,0.0,1.0
1628540034.28125,0,0,23.898061960672884,0.0,1.0
1628540034.75,0,0,35.67234680721173,0.0,1.0
1628540035.21875,0,0,28.64548576020407,0.0,1.0
1628540035.6875,0,0,27.248202539796154,0.0,1.0
1628540036.15625,0,0,0.0,0.0,1.0
1628540036.625,0,0,30.5039464412133,0.0,1.0
1628540037.09375,0,0,0.0,0.0,1.0
1628540037.5625,0,0,24.57222353337409,0.0,1.0
1628540038.03125,0,0,31.75993184364819,0.0,1.0
1628540038.5,0,0,0.0,0.0,1.0
1628540038.96875,0,0,27.070996776395518,0.0,1.0
1628540039.4375,0,0,22.01751356171528,0.0,1.0
1628540039.90625,0,0,23.25809006279741,0.0,1.0
1628540040.375,0,0,0.0,0.0,1.0
1628540040.84375,0,0,0.0,0.0,1.0
1628540041.3125,0,0,31.37130867059667,0.0,1.0
1628540041.78125,0,0,0.0,0.0,1.0
1628540042.25,0,0,32.23100689645952,0.0,1.0
1628540042.71875,0,0,0.0,0.0,1.0
1628540043.1875,0,0,26.411145006045533,0.0,1.0
1628540043.65625,0,0,31.74467294006286,0.0,1.0
1628540044.125,0,0,15.612322414809332,0.0,1.0
1628540044.59375,0,0,33.9629852072619,0.0,1.0
1628540045.0625,0,0,0.0,0.0,1.0
1628540045.53125,0,0,33.436555334004275,0.0,1.0
1628540046.0,0,0,29.78501088457689,0.0,1.0
1628540046.46875,0,0,25.874913871053568,0.0,1.0
1628540046.9375,0,0,30.10086113001708,0.0,1.0
1628540047.40625,0,0,0.0,0.0,1.0
1628540047.875,0,0,29.484476706475025,0.0,1.0
1628540048.34375,0,0,0.0,0.0,1.0
1628540048.8125,0,0,28.63769265908669,0.0,1.0
1628540049.28125,0,0,30.958468273150576,0.0,1.0
1628540049.75,0,0,0.0,0.0,1.0
1628540050.21875,0,0,30.055935115936677,0.0,1.0
1628540050.6875,0,0,0.0,0.0,1.0
1628540051.15625,0,0,24.222680813261693,0.0,1.0
1628540051.625,0,0,0.0,0.0,1.0
1628540052.09375,0,0,0.0,0.0,1.0
1628540052.5625,0,0,31.99542770526714,0.0,1.0
1628540053.03125,0,0,0.0,0.0,1.0
1628540053.5,0,0,33.71232324336225,0.0,1.0
1628540053.96875,0,0,0.0,0.0,1.0
1628540054.4375,0,0,31.269358530695534,0.0,1.0
1628540054.90625,0,0,39.491058847605466,0.0,1.0
1628540055.375,0,0,0.0,0.0,1.0
1628540055.84375,0,0,32.29845762357128,0.0,1.0
1628540056.3125,0,0,0.0,0.0,1.0
1628540056.78125,0,0,31.7246849306915,0.0,1.0
1628540057.25,0,0,0.0,0.0,1.0
1628540057.71875,0,0,32.111972509716765,0.0,1.0
1628540058.1875,0,0,31.276179843276832,0.0,1.0
1628540058.65625,0,0,24.88162165967585,0.0,1.0
1628540059.125,0,0,30.937475876479812,0.0,1.0
1628540059.59375,0,0,23.165438406179977,0.0,1.0
1628540060.0625,0,0,27.80369434094523,0.0,1.0
1628540060.53125,0,0,0.0,0.0,1.0
1628540061.0,0,0,29.520927919557447,0.0,1.0
1628540061.46875,0,0,0.0,0.0,1.0
1628540061.9375,0,0,26.544512524559295,0.0,1.0
1628540062.40625,0,0,30.568550045041484,0.0,1.0
1628540062.875,0,0,19.229447272704174,0.0,1.0
1628540063.34375,0,0,30.041368142876557,0.0,1.0
1628540063.8125,0,0,0.0,0.0,1.0
1628540064.28125,0,0,29.938020479200848,0.0,1.0
1628540064.75,0,0,24.704000474887096,0.0,1.0
1628540065.21875,0,0,27.308111910765035,0.0,1.0
1628540065.6875,0,0,0.0,0.0,1.0
1628540066.15625,0,0,25.578889987218375,0.0,1.0
1628540066.625,0,0,30.736280961748633,0.0,1.0
1628540067.09375,0,0,0.0,0.0,1.0
1628540067.5625,0,0,25.65581123068622,0.0,1.0
1628540068.03125,0,0,0.0,0.0,1.0
1628540068.5,0,0,24.68279882887118,0.0,1.0
1628540068.96875,0,0,0.0,0.0,1.0
1628540069.4375,0,0,13.413948131935422,0.0,1.0
1628540069.90625,0,0,33.32383445189297,0.0,1.0
1628540070.375,0,0,0.0,0.0,1.0
1628540070.84375,0,0,64.08149830990995,0.0,1.0
1628540071.3125,0,0,0.0,0.0,1.0
1628540071.78125,0,0,23.33170824450525,0.0,1.0
1628540072.25,0,0,32.31745254821594,0.0,1.0
1628540072.71875,0,0,27.731574313349295,0.0,1.0
1628540073.1875,0,0,20.76738235305542,0.0,1.0
1628540073.65625,0,0,0.0,0.0,1.0
1628540074.125,0,0,33.53947793275357,0.0,1.0
1628540074.59375,0,0,28.402325741128635,0.0,1.0
1628540075.0625,0,0,0.0,0.0,1.0
1628540075.53125,0,0,32.27914681693063,0.0,1.0
1628540076.0,0,0,32.450402948841194,0.0,1.0
1628540076.46875,0,0,0.0,0.0,1.0
1628540076.9375,0,0,36.59561098553031,0.0,1.0
1628540077.40625,0,0,0.0,0.0,1.0
1628540077.875,0,0,36.21051230718851,0.0,1.0
1628540078.34375,0,0,0.0,0.0,1.0
1628540078.8125,0,0,28.522929642096628,0.0,1.0
1628540079.28125,0,0,31.21832253508632,0.0,1.0
1628540079.75,0,0,25.942808281560023,0.0,1.0
1628540080.21875,0,0,33.007223127067505,0.0,1.0
1628540080.6875,0,0,0.0,0.0,1.0
1628540081.15625,0,0,34.55631908739695,0.0,1.0
1628540081.625,0,0,0.0,0.0,1.0
1628540082.09375,0,0,24.70772295521685,0.0,1.0
1628540082.5625,0,0,34.810560262713246,0.0,1.0
1628540083.03125,0,0,23.700597637518296,0.0,1.0
1628540083.5,0,0,34.278283023175156,0.0,1.0
1628540083.96875,0,0,0.0,0.0,1.0
1628540084.4375,0,0,33.985187177627324,0.0,1.0
1628540084.90625,0,0,34.64537459303048,0.0,1.0
1628540085.375,0,0,17.292673468410996,0.0,1.0
1628540085.84375,0,0,34.32152161296604,0.0,1.0
1628540086.3125,0,0,0.0,0.0,1.0
1628540086.78125,0,0,27.192130379262714,0.0,1.0
1628540087.25,0,0,35.73730040814807,0.0,1.0
1628540087.71875,0,0,30.071143085080497,0.0,1.0
1628540088.1875,0,0,35.34709958111749,0.0,1.0
1628540088.65625,0,0,0.0,0.0,1.0
1628540089.125,0,0,33.65921038826056,0.0,1.0
1628540089.59375,0,0,33.9232459095714,0.0,1.0
1628540090.0625,0,0,26.19893415894262,0.0,1.0
1628540090.53125,0,0,29.72730853974512,0.0,1.0
1628540091.0,0,0,17.732874554616895,0.0,1.0
1628540091.46875,0,0,35.81003440703642,0.0,1.0
1628540091.9375,0,0,31.829363220991443,0.0,1.0
1628540092.40625,0,0,21.529129265962972,0.0,1.0
1628540092.875,0,0,39.724417063924804,0.0,1.0
1628540093.34375,0,0,0.0,0.0,1.0
1628540093.8125,0,0,35.2768519125546,0.0,1.0
1628540094.28125,0,0,0.0,0.0,1.0
1628540094.75,0,0,36.45533075201717,0.0,1.0
1628540095.21875,0,0,0.0,0.0,1.0
1628540095.6875,0,0,23.534074717268712,0.0,1.0
1628540096.15625,0,0,37.58151277221607,0.0,1.0
1628540096.625,0,0,26.275511798445947,0.0,1.0
1628540097.09375,0,0,39.73338869509648,0.0,1.0
1628540097.5625,0,0,0.0,0.0,1.0
1628540098.03125,0,0,41.98297441809429,0.0,1.0
1628540098.5,0,0,0.0,0.0,1.0
1628540098.96875,0,0,36.96929864165649,0.0,1.0
1628540099.4375,0,0,36.99155778715846,0.0,1.0
1628540099.90625,0,0,24.159452432903986,0.0,1.0
1628540100.375,0,0,25.59182708298226,0.0,1.0
1628540100.84375,0,0,14.926921080270077,0.0,1.0
1628540101.3125,0,0,32.667349943453985,0.0,1.0
1628540101.78125,0,0,33.37261525096845,0.0,1.0
1628540102.25,0,0,0.0,0.0,1.0
1628540102.71875,0,0,32.88055908664507,0.0,1.0
1628540103.1875,0,0,23.735972463181053,0.0,1.0
1628540103.65625,0,0,30.424825836289028,0.0,1.0
1628540104.125,0,0,0.0,0.0,1.0
1628540104.59375,0,0,29.091448290988538,0.0,1.0
1628540105.0625,0,0,0.0,0.0,1.0
1628540105.53125,0,0,27.490532297890493,0.0,1.0
1628540106.0,0,0,28.890563798212753,0.0,1.0
1628540106.46875,0,0,23.590047183108062,0.0,1.0
1628540106.9375,0,0,29.102299250153795,0.0,1.0
1628540107.40625,0,0,0.0,0.0,1.0
1628540107.875,0,0,31.272426208473867,0.0,1.0
1628540108.34375,0,0,0.0,0.0,1.0
1628540108.8125,0,0,28.297846932951085,0.0,1.0
1628540109.28125,0,0,0.0,0.0,1.0
1628540109.75,0,0,28.43231490748452,0.0,1.0
1628540110.21875,0,0,35.418613460115296,0.0,1.0
1628540110.6875,0,0,29.212980147378147,0.0,1.0
1628540111.15625,0,0,34.32667149370196,0.0,1.0
1628540111.625,0,0,0.0,0.0,1.0
1628540112.09375,0,0,33.583252516292184,0.0,1.0
1628540112.5625,0,0,31.22177666963117,0.0,1.0
1628540113.03125,0,0,19.37955776164945,0.0,1.0
1628540113.5,0,0,34.47009023754592,0.0,1.0
1628540113.96875,0,0,0.0,0.0,1.0
1628540114.4375,0,0,33.38155291928168,0.0,1.0
1628540114.90625,0,0,34.26310980120107,0.0,1.0
1628540115.375,0,0,25.777443283453618,0.0,1.0
1628540115.84375,0,0,26.814104534887996,0.0,1.0
1628540116.3125,0,0,24.71182816695567,0.0,1.0
1628540116.78125,0,0,27.410019868613723,0.0,1.0
1628540117.25,0,0,0.0,0.0,1.0
1628540117.71875,0,0,33.27534202794132,0.0,1.0
1628540118.1875,0,0,0.0,0.0,1.0
1628540118.65625,0,0,22.84316329131317,0.0,1.0
1628540119.125,0,0,28.85189520048389,0.0,1.0
1628540119.59375,0,0,0.0,0.0,1.0
1628540120.0625,0,0,36.97265301205836,0.0,1.0
1628540120.53125,0,0,0.0,0.0,1.0
1628540121.0,0,0,33.6239195052948,0.0,1.0
1628540121.46875,0,0,0.0,0.0,1.0
1628540121.9375,0,0,49.16027986117129,0.0,1.0
1628540122.40625,0,0,0.0,0.0,1.0
1628540122.875,0,0,27.195129836058914,0.0,1.0
1628540123.34375,0,0,36.91691178279501,0.0,1.0
1628540123.8125,0,0,30.418296617435434,0.0,1.0
1628540124.28125,0,0,31.025210809989275,0.0,1.0
1628540124.75,0,0,0.0,0.0,1.0
1628540125.21875,0,0,26.07772729513774,0.0,1.0
1628540125.6875,0,0,31.262499661991935,0.0,1.0
1628540126.15625,0,0,24.7624778190869,0.0,1.0
1628540126.625,0,0,31.241331863854295,0.0,1.0
1628540127.09375,0,0,0.0,0.0,1.0
1628540127.5625,0,0,29.296853192576545,0.0,1.0
1628540128.03125,0,0,0.0,0.0,1.0
1628540128.5,0,0,28.30072707792863,0.0,1.0
1628540128.96875,0,0,29.659982482869907,0.0,1.0
1628540129.4375,0,0,0.0,0.0,1.0
1628540129.90625,0,0,31.535290266983385,0.0,1.0
1628540130.375,0,0,0.0,0.0,1.0
1628540130.84375,0,0,34.54182545785711,0.0,1.0
1628540131.3125,0,0,34.11606373373773,0.0,1.0
1628540131.78125,0,0,29.585011928730456,0.0,1.0
1628540132.25,0,0,33.24818579776377,0.0,1.0
1628540132.71875,0,0,28.942702841071352,0.0,1.0
1628540133.1875,0,0,27.47417583203796,0.0,1.0
1628540133.65625,0,0,0.0,0.0,1.0
1628540134.125,0,0,38.601014493126435,0.0,1.0
1628540134.59375,0,0,27.92026596677963,0.0,1.0
1628540135.0625,0,0,16.728297323088206,0.0,1.0
1628540135.53125,0,0,33.82041860277425,0.0,1.0
1628540136.0,0,0,0.0,0.0,1.0
1628540136.46875,0,0,31.831131815266275,0.0,1.0
1628540136.9375,0,0,0.0,0.0,1.0
1628540137.40625,0,0,27.821385422727825,0.0,1.0
1628540137.875,0,0,32.7590106229437,0.0,1.0
1628540138.34375,0,0,0.0,0.0,1.0
1628540138.8125,0,0,37.17055568391823,0.0,1.0
1628540139.28125,0,0,0.0,0.0,1.0
1628540139.75,0,0,30.74414918048354,0.0,1.0
1628540140.21875,0,0,35.85998164200418,0.0,1.0
1628540140.6875,0,0,26.564424127292856,0.0,1.0
1628540141.15625,0,0,40.11438452389489,0.0,1.0
1628540141.625,0,0,0.0,0.0,1.0
1628540142.09375,0,0,43.29541133920129,0.0,1.0
1628540142.5625,0,0,74.6522183543169,0.0,1.0
1628540143.03125,0,0,0.0,0.0,1.0
1628540143.5,0,0,28.381937735423772,0.0,1.0
1628540143.96875,0,0,0.0,0.0,1.0
1628540144.4375,0,0,28.27353989749526,0.0,1.0
1628540144.90625,0,0,33.52328768275501,0.0,1.0
1628540145.375,0,0,0.0,0.0,1.0
1628540145.84375,0,0,34.23332233839639,0.0,1.0
1628540146.3125,0,0,39.85086682436507,0.0,1.0
1628540146.78125,0,0,30.86745457961802,0.0,1.0
1628540147.25,0,0,35.96076089941909,0.0,1.0
1628540147.71875,0,0,34.0675633501375,0.0,1.0
1628540148.1875,0,0,34.24127031024398,0.0,1.0
1628540148.65625,0,0,0.0,0.0,1.0
1628540149.125,0,0,33.70568518803924,0.0,1.0
1628540149.59375,0,0,37.518478536844945,0.0,1.0
1628540150.0625,0,0,26.481817558282234,0.0,1.0
1628540150.53125,0,0,35.934121791867256,0.0,1.0
1628540151.0,0,0,0.0,0.0,1.0
1628540151.46875,0,0,35.129542173996356,0.0,1.0
1628540151.9375,0,0,31.859872991592926,0.0,1.0
1628540152.40625,0,0,21.296645756139686,0.0,1.0
1628540152.875,0,0,31.674066064239657,0.0,1.0
1628540153.34375,0,0,26.9118497722972,0.0,1.0
1628540153.8125,0,0,29.951382373407956,0.0,1.0
1628540154.28125,0,0,0.0,0.0,1.0
1628540154.75,0,0,30.890383374862875,0.0,1.0
1628540155.21875,0,0,33.841973733871086,0.0,1.0
1628540155.6875,0,0,22.15156089366391,0.0,1.0
1628540156.15625,0,0,31.61329857970824,0.0,1.0
1628540156.625,0,0,22.48500204123353,0.0,1.0
1628540157.09375,0,0,28.453863322777973,0.0,1.0
1628540157.5625,0,0,0.0,0.0,1.0
1628540158.03125,0,0,24.513331719714397,0.0,1.0
1628540158.5,0,0,0.0,0.0,1.0
1628540158.96875,0,0,15.18405010934194,0.0,1.0
1628540159.4375,0,0,26.098453266449404,0.0,1.0
1628540159.90625,0,0,17.672989975199595,0.0,1.0
1628540160.375,0,0,26.662378435480885,0.0,1.0
1628540160.84375,0,0,0.0,0.0,1.0
1628540161.3125,0,0,25.388697515618595,0.0,1.0
1628540161.78125,0,0,0.0,0.0,1.0
1628540162.25,0,0,22.244812610450673,0.0,1.0
1628540162.71875,0,0,24.139255289725213,0.0,1.0
1628540163.1875,0,0,0.0,0.0,1.0
1628540163.65625,0,0,25.817738625591367,0.0,1.0
1628540164.125,0,0,0.0,0.0,1.0
1628540164.59375,0,0,24.646408046721437,0.0,1.0
1628540165.0625,0,0,23.0774581274566,0.0,1.0
1628540165.53125,0,0,17.9659820878056,0.0,1.0
1628540166.0,0,0,23.260696116895986,0.0,1.0
1628540166.46875,0,0,0.0,0.0,1.0
1628540166.9375,0,0,0.0,0.0,1.0
1628540167.40625,0,0,27.68668422788497,0.0,1.0
1628540167.875,0,0,53.440323439863555,0.0,1.0
1628540168.34375,0,0,23.23255375819065,0.0,1.0
1628540168.8125,0,0,0.0,0.0,1.0
1628540169.28125,0,0,22.061653424247407,0.0,1.0
1628540169.75,0,0,20.58755178696703,0.0,1.0
1628540170.21875,0,0,-2.221036986364592,0.0,1.0
1628540170.6875,0,0,21.395184451048724,0.0,1.0
1628540171.15625,0,0,0.0,0.0,1.0
1628540171.625,0,0,18.53573667435311,0.0,1.0
1628540172.09375,0,0,22.33139011542921,0.0,1.0
1628540172.5625,0,0,12.124679855447727,0.0,1.0
1628540173.03125,0,0,19.629852542583865,0.0,1.0
1628540173.5,0,0,0.0,0.0,1.0
1628540173.96875,0,0,20.38005734548495,0.0,1.0
1628540174.4375,0,0,0.0,0.0,1.0
1628540174.90625,0,0,23.577615810289277,0.0,1.0
1628540175.375,0,0,25.729385086612403,0.0,1.0
1628540175.84375,0,0,18.062565691793754,0.0,1.0
1628540176.3125,0,0,26.12820210940397,0.0,1.0
1628540176.78125,0,0,0.0,0.0,1.0
1628540177.25,0,0,25.25162405373823,0.0,1.0
1628540177.71875,0,0,27.424307542056347,0.0,1.0
1628540178.1875,0,0,0.0,0.0,1.0
1628540178.65625,0,0,25.486133396424783,0.0,1.0
1628540179.125,0,0,20.93193324542975,0.0,1.0
1628540179.59375,0,0,15.423946793495688,0.0,1.0
1628540180.0625,0,0,13.722739220867727,0.0,1.0
1628540180.53125,0,0,9.89684112005398,0.0,1.0
1628540181.0,0,0,20.707876689985863,0.0,1.0
1628540181.46875,0,0,23.956842307287513,0.0,1.0
1628540181.9375,0,0,15.385556640362852,0.0,1.0
1628540182.40625,0,0,26.31948922758183,0.0,1.0
1628540182.875,0,0,0.0,0.0,1.0
1628540183.34375,0,0,24.162130326446682,0.0,1.0
1628540183.8125,0,0,22.268888962294294,0.0,1.0
1628540184.28125,0,0,11.45072431939807,0.0,1.0
1628540184.75,0,0,26.518110019603938,0.0,1.0
1628540185.21875,0,0,0.0,0.0,1.0
1628540185.6875,0,0,25.504946941519112,0.0,1.0
1628540186.15625,0,0,28.48901459893904,0.0,1.0
1628540186.625,0,0,0.0,0.0,1.0
1628540187.09375,0,0,16.29785299031458,0.0,1.0
1628540187.5625,0,0,0.0,0.0,1.0
1628540188.03125,0,0,26.515718825857935,0.0,1.0
1628540188.5,0,0,25.693382810722856,0.0,1.0
1628540188.96875,0,0,12.074894609517443,0.0,1.0
1628540189.4375,0,0,30.97002896151637,0.0,1.0
1628540189.90625,0,0,0.0,0.0,1.0
1628540190.375,0,0,18.632604170756505,0.0,1.0
1628540190.84375,0,0,26.387695822887597,0.0,1.0
1628540191.3125,0,0,21.088213281576913,0.0,1.0
1628540191.78125,0,0,25.931664250165735,0.0,1.0
1628540192.25,0,0,0.0,0.0,1.0
1628540192.71875,0,0,12.123525997850189,0.0,1.0
1628540193.1875,0,0,29.35044930705659,0.0,1.0
1628540193.65625,0,0,0.0,0.0,1.0
1628540194.125,0,0,29.285876895329356,0.0,1.0
1628540194.59375,0,0,32.04885935145784,0.0,1.0
1628540195.0625,0,0,16.426601356630684,0.0,1.0
1628540195.53125,0,0,35.482482264109166,0.0,1.0
1628540196.0,0,0,0.0,0.0,1.0
1628540196.46875,0,0,26.262795233364482,0.0,1.0
1628540196.9375,0,0,33.334742061227736,0.0,1.0
1628540197.40625,0,0,0.0,0.0,1.0
1628540197.875,0,0,28.342533054882853,0.0,1.0
1628540198.34375,0,0,29.99189320102148,0.0,1.0
1628540198.8125,0,0,19.739518090335817,0.0,1.0
1628540199.28125,0,0,25.9238229071566,0.0,1.0
1628540199.75,0,0,0.0,0.0,1.0
1628540200.21875,0,0,26.465057628817092,0.0,1.0
1628540200.6875,0,0,30.881828533124313,0.0,1.0
1628540201.15625,0,0,0.0,0.0,1.0
1628540201.625,0,0,34.34087702445088,0.0,1.0
1628540202.09375,0,0,33.772564632081405,0.0,1.0
1628540202.5625,0,0,0.0,0.0,1.0
1628540203.03125,0,0,33.480107174246605,0.0,1.0
1628540203.5,0,0,0.0,0.0,1.0
1628540203.96875,0,0,26.827709380176902,0.0,1.0
1628540204.4375,0,0,33.478772825161535,0.0,1.0
1628540204.90625,0,0,22.766607965865216,0.0,1.0
1628540205.375,0,0,30.512670745906874,0.0,1.0
1628540205.84375,0,0,34.335096140433976,0.0,1.0
1628540206.3125,0,0,0.0,0.0,1.0
1628540206.78125,0,0,37.42767483185492,0.0,1.0
1628540207.25,0,0,40.069216729230384,0.0,1.0
1628540207.71875,0,0,40.37306985297912,0.0,1.0
1628540208.1875,0,0,46.55910971532714,0.0,1.0
1628540208.65625,0,0,0.0,0.0,1.0
1628540209.125,0,0,42.197826352953086,0.0,1.0
1628540209.59375,0,0,0.0,0.0,1.0
1628540210.0625,0,0,34.635974681689575,0.0,1.0
1628540210.53125,0,0,42.94962641959588,0.0,1.0
1628540211.0,0,0,0.0,0.0,1.0
1628540211.46875,0,0,49.18135874238076,0.0,1.0
1628540211.9375,0,0,0.0,0.0,1.0
1628540212.40625,0,0,49.96499615714127,0.0,1.0
1628540212.875,0,0,0.0,0.0,1.0
1628540213.34375,0,0,46.369313165180806,0.0,1.0
1628540213.8125,0,0,45.4924485454583,0.0,1.0
1628540214.28125,0,0,0.0,0.0,1.0
1628540214.75,0,0,43.876599992186534,0.0,1.0
1628540215.21875,0,0,0.0,0.0,1.0
1628540215.6875,0,0,41.712427379505385,0.0,1.0
1628540216.15625,0,0,47.27336327402475,0.0,1.0
1628540216.625,0,0,0.0,0.0,1.0
1628540217.09375,0,0,45.68779489251906,0.0,1.0
1628540217.5625,0,0,0.0,0.0,1.0
1628540218.03125,0,0,43.006503470084205,0.0,1.0
1628540218.5,0,0,0.0,0.0,1.0
1628540218.96875,0,0,26.88578913104857,0.0,1.0
1628540219.4375,0,0,31.568171507713227,0.0,1.0
1628540219.90625,0,0,19.155010444335122,0.0,1.0
1628540220.375,0,0,34.4498668054725,0.0,1.0
1628540220.84375,0,0,0.0,0.0,1.0
1628540221.3125,0,0,30.259568941043955,0.0,1.0
1628540221.78125,0,0,0.0,0.0,1.0
1628540222.25,0,0,29.282987699598927,0.0,1.0
1628540222.71875,0,0,0.0,0.0,1.0
1628540223.1875,0,0,28.507625053681107,0.0,1.0
1628540223.65625,0,0,0.0,0.0,1.0
1628540224.125,0,0,27.789168371573247,0.0,1.0
1628540224.59375,0,0,34.810155501995716,0.0,1.0
1628540225.0625,0,0,27.592941949744876,0.0,1.0
1628540225.53125,0,0,35.229825836758444,0.0,1.0
1628540226.0,0,0,27.798042429560446,0.0,1.0
1628540226.46875,0,0,34.68562309521857,0.0,1.0
1628540226.9375,0,0,0.0,0.0,1.0
1628540227.40625,0,0,30.103061141967913,0.0,1.0
1628540227.875,0,0,0.0,0.0,1.0
1628540228.34375,0,0,29.49744180111002,0.0,1.0
1628540228.8125,0,0,30.260568867100236,0.0,1.0
1628540229.28125,0,0,20.420319476815806,0.0,1.0
1628540229.75,0,0,27.931182476726114,0.0,1.0
1628540230.21875,0,0,22.898117993050846,0.0,1.0
1628540230.6875,0,0,24.74335385001701,0.0,1.0
1628540231.15625,0,0,0.0,0.0,1.0
1628540231.625,0,0,28.787102850487322,0.0,1.0
1628540232.09375,0,0,0.0,0.0,1.0
1628540232.5625,0,0,29.757232807465837,0.0,1.0
1628540233.03125,0,0,31.281176339094294,0.0,1.0
1628540233.5,0,0,27.565387299889682,0.0,1.0
1628540233.96875,0,0,35.09456635286165,0.0,1.0
1628540234.4375,0,0,0.0,0.0,1.0
1628540234.90625,0,0,33.942553177906035,0.0,1.0
1628540235.375,0,0,0.0,0.0,1.0
1628540235.84375,0,0,31.887085214397025,0.0,1.0
1628540236.3125,0,0,0.0,0.0,1.0
1628540236.78125,0,0,27.24164654959203,0.0,1.0
1628540237.25,0,0,22.578257384197904,0.0,1.0
1628540237.71875,0,0,14.218284865652354,0.0,1.0
1628540238.1875,0,0,25.471373775317645,0.0,1.0
1628540238.65625,0,0,0.0,0.0,1.0
1628540239.125,0,0,26.230516448914315,0.0,1.0
1628540239.59375,0,0,0.0,0.0,1.0
1628540240.0625,0,0,25.085084823323594,0.0,1.0
1628540240.53125,0,0,26.050205992399857,0.0,1.0
1628540241.0,0,0,20.940910641812053,0.0,1.0
1628540241.46875,0,0,24.887792035116988,0.0,1.0
1628540241.9375,0,0,0.0,0.0,1.0
1628540242.40625,0,0,30.83481407332508,0.0,1.0
1628540242.875,0,0,30.93159638582363,0.0,1.0
1628540243.34375,0,0,26.650545035561432,0.0,1.0
1628540243.8125,0,0,31.854018076298733,0.0,1.0
1628540244.28125,0,0,29.772638630917882,0.0,1.0
1628540244.75,0,0,31.920041345704956,0.0,1.0
1628540245.21875,0,0,0.0,0.0,1.0
1628540245.6875,0,0,27.540999851634872,0.0,1.0
1628540246.15625,0,0,0.0,0.0,1.0
1628540246.625,0,0,31.434014566962226,0.0,1.0
1628540247.09375,0,0,0.0,0.0,1.0
1628540247.5625,0,0,30.373046328586593,0.0,1.0
1628540248.03125,0,0,29.89606630768472,0.0,1.0
1628540248.5,0,0,24.21973622863546,0.0,1.0
1628540248.96875,0,0,29.8008518237047,0.0,1.0
1628540249.4375,0,0,26.823345430350024,0.0,1.0
1628540249.90625,0,0,28.03488520349242,0.0,1.0
1628540250.375,0,0,24.022112570092485,0.0,1.0
1628540250.84375,0,0,27.6144090861255,0.0,1.0
1628540251.3125,0,0,0.0,0.0,1.0
1628540251.78125,0,0,26.573086936907497,0.0,1.0
1628540252.25,0,0,51.28814097349827,0.0,1.0
1628540252.71875,0,0,0.0,0.0,1.0
1628540253.1875,0,0,0.11144293101589312,0.0,1.0
1628540253.65625,0,0,32.70406796178151,0.0,1.0
1628540254.125,0,0,34.54616111673682,0.0,1.0
1628540254.59375,0,0,0.0,0.0,1.0
1628540255.0625,0,0,26.581971042562778,0.0,1.0
1628540255.53125,0,0,0.0,0.0,1.0
1628540256.0,0,0,19.54972371492133,0.0,1.0
1628540256.46875,0,0,12.570337873016936,0.0,1.0
1628540256.9375,0,0,7.122460104127142,0.0,1.0
1628540257.40625,0,0,9.563442632217477,0.0,1.0
1628540257.875,0,0,7.078191227012742,0.0,1.0
1628540258.34375,0,0,8.173230148007944,0.0,1.0
1628540258.8125,0,0,11.071173909340397,0.0,1.0
1628540259.28125,0,0,2.4213321951466074,0.0,1.0
1628540259.75,0,0,10.346242862668097,0.0,1.0
1628540260.21875,0,0,0.0,0.0,1.0
1628540260.6875,0,0,10.404256591837694,0.0,1.0
1628540261.15625,0,0,15.46411673207689,0.0,1.0
1628540261.625,0,0,0.0,0.0,1.0
1628540262.09375,0,0,21.185027413539057,0.0,1.0
1628540262.5625,0,0,20.702823359108873,0.0,1.0
1628540263.03125,0,0,0.0,0.0,1.0
1628540263.5,0,0,25.525731215459885,0.0,1.0
1628540263.96875,0,0,36.01721416010847,0.0,1.0
1628540264.4375,0,0,13.347564491164263,0.0,1.0
1628540264.90625,0,0,29.391783579871003,0.0,1.0
1628540265.375,0,0,0.0,0.0,1.0
1628540265.84375,0,0,27.605914684915145,0.0,1.0
1628540266.3125,0,0,25.372801786059288,0.0,1.0
1628540266.78125,0,0,16.803334354097572,0.0,1.0
1628540267.25,0,0,19.527454931409316,0.0,1.0
1628540267.71875,0,0,15.042664380303112,0.0,1.0
1628540268.1875,0,0,22.948015220660466,0.0,1.0
1628540268.65625,0,0,0.0,0.0,1.0
1628540269.125,0,0,21.539384329123664,0.0,1.0
1628540269.59375,0,0,0.0,0.0,1.0
1628540270.0625,0,0,19.692265756503748,0.0,1.0
1628540270.53125,0,0,21.432763470625382,0.0,1.0
1628540271.0,0,0,18.266999732667223,0.0,1.0
1628540271.46875,0,0,21.372177980952557,0.0,1.0
1628540271.9375,0,0,17.911220905620763,0.0,1.0
1628540272.40625,0,0,22.849471705979287,0.0,1.0
1628540272.875,0,0,25.515088581448428,0.0,1.0
1628540273.34375,0,0,25.725346690232683,0.0,1.0
1628540273.8125,0,0,0.0,0.0,1.0
1628540274.28125,0,0,25.996878640865287,0.0,1.0
1628540274.75,0,0,0.0,0.0,1.0
1628540275.21875,0,0,21.129470002647672,0.0,1.0
1628540275.6875,0,0,0.0,0.0,1.0
1628540276.15625,0,0,24.373052854329263,0.0,1.0
1628540276.625,0,0,0.0,0.0,1.0
1628540277.09375,0,0,23.60599788707375,0.0,1.0
1628540277.5625,0,0,22.931962912965904,0.0,1.0
1628540278.03125,0,0,20.97969474799723,0.0,1.0
1628540278.5,0,0,23.472251297132996,0.0,1.0
1628540278.96875,0,0,21.42530930028862,0.0,1.0
1628540279.4375,0,0,18.57942652678194,0.0,1.0
1628540279.90625,0,0,19.255141469655683,0.0,1.0
1628540280.375,0,0,17.809521649470298,0.0,1.0
1628540280.84375,0,0,0.0,0.0,1.0
1628540281.3125,0,0,20.555552989258285,0.0,1.0
1628540281.78125,0,0,21.760449641876786,0.0,1.0
1628540282.25,0,0,0.0,0.0,1.0
1628540282.71875,0,0,24.103879669857736,0.0,1.0
1628540283.1875,0,0,0.0,0.0,1.0
1628540283.65625,0,0,19.404436650593368,0.0,1.0
1628540284.125,0,0,24.33791444595556,0.0,1.0
1628540284.59375,0,0,19.116003765110175,0.0,1.0
1628540285.0625,0,0,26.29490790043982,0.0,1.0
1628540285.53125,0,0,0.0,0.0,1.0
1628540286.0,0,0,25.394002542814842,0.0,1.0
1628540286.46875,0,0,0.0,0.0,1.0
1628540286.9375,0,0,22.990853181820466,0.0,1.0
1628540287.40625,0,0,24.852774031845108,0.0,1.0
1628540287.875,0,0,0.0,0.0,1.0
1628540288.34375,0,0,24.7119650498345,0.0,1.0
1628540288.8125,0,0,0.0,0.0,1.0
1628540289.28125,0,0,24.22369874315266,0.0,1.0
1628540289.75,0,0,22.214332510692145,0.0,1.0
1628540290.21875,0,0,0.0,0.0,1.0
1628540290.6875,0,0,25.565888990519408,0.0,1.0
1628540291.15625,0,0,0.0,0.0,1.0
1628540291.625,0,0,26.22612866327593,0.0,1.0
1628540292.09375,0,0,27.562049209139726,0.0,1.0
1628540292.5625,0,0,19.5983414008513,0.0,1.0
1628540293.03125,0,0,24.58549030571135,0.0,1.0
1628540293.5,0,0,0.0,0.0,1.0
1628540293.96875,0,0,25.59163721545748,0.0,1.0
1628540294.4375,0,0,28.522808225458164,0.0,1.0
1628540294.90625,0,0,21.277208433810664,0.0,1.0
1628540295.375,0,0,27.17849401084179,0.0,1.0
1628540295.84375,0,0,0.0,0.0,1.0
1628540296.3125,0,0,22.89428286828363,0.0,1.0
1628540296.78125,0,0,0.0,0.0,1.0
1628540297.25,0,0,22.03966593709242,0.0,1.0
1628540297.71875,0,0,22.11795926091696,0.0,1.0
1628540298.1875,0,0,0.0,0.0,1.0
1628540298.65625,0,0,22.615982062859395,0.0,1.0
1628540299.125,0,0,0.0,0.0,1.0
1628540299.59375,0,0,25.208710880222327,0.0,1.0
1628540300.0625,0,0,22.263735127514565,0.0,1.0
1628540300.53125,0,0,12.186607757219951,0.0,1.0
1628540301.0,0,0,23.335701259323407,0.0,1.0
1628540301.46875,0,0,27.124046984072983,0.0,1.0
1628540301.9375,0,0,19.208502743670145,0.0,1.0
1628540302.40625,0,0,26.130619591642745,0.0,1.0
1628540302.875,0,0,19.996700334182943,0.0,1.0
1628540303.34375,0,0,27.630458558936944,0.0,1.0
1628540303.8125,0,0,0.0,0.0,1.0
1628540304.28125,0,0,22.66578325104187,0.0,1.0
1628540304.75,0,0,0.0,0.0,1.0
1628540305.21875,0,0,22.850748301129524,0.0,1.0
1628540305.6875,0,0,22.945112808236193,0.0,1.0
1628540306.15625,0,0,16.967279777167995,0.0,1.0
1628540306.625,0,0,25.293158933707563,0.0,1.0
1628540307.09375,0,0,0.0,0.0,1.0
1628540307.5625,0,0,25.221206819676492,0.0,1.0
1628540308.03125,0,0,0.0,0.0,1.0
1628540308.5,0,0,31.790723791857314,0.0,1.0
1628540308.96875,0,0,0.0,0.0,1.0
1628540309.4375,0,0,19.468095860322933,0.0,1.0
1628540309.90625,0,0,22.38423622393942,0.0,1.0
1628540310.375,0,0,9.296982050934792,0.0,1.0
1628540310.84375,0,0,22.988899745689142,0.0,1.0
1628540311.3125,0,0,22.380407931111588,0.0,1.0
1628540311.78125,0,0,0.0,0.0,1.0
1628540312.25,0,0,23.36217778423122,0.0,1.0
1628540312.71875,0,0,0.0,0.0,1.0
1628540313.1875,0,0,22.113122320564653,0.0,1.0
1628540313.65625,0,0,22.260394672841986,0.0,1.0
1628540314.125,0,0,16.736524132182808,0.0,1.0
1628540314.59375,0,0,21.679704790786527,0.0,1.0
1628540315.0625,0,0,5.65324421629808,0.0,1.0
1628540315.53125,0,0,27.558422632381646,0.0,1.0
1628540316.0,0,0,29.83424620921475,0.0,1.0
1628540316.46875,0,0,0.0,0.0,1.0
1628540316.9375,0,0,28.520837150626342,0.0,1.0
1628540317.40625,0,0,0.0,0.0,1.0
1628540317.875,0,0,30.10126440440538,0.0,1.0
1628540318.34375,0,0,26.881423033840743,0.0,1.0
1628540318.8125,0,0,17.79897045346849,0.0,1.0
1628540319.28125,0,0,26.447351490906055,0.0,1.0
1628540319.75,0,0,0.0,0.0,1.0
1628540320.21875,0,0,28.737981183402074,0.0,1.0
1628540320.6875,0,0,26.817084527199945,0.0,1.0
1628540321.15625,0,0,19.2937801187675,0.0,1.0
1628540321.625,0,0,29.358285707277954,0.0,1.0
1628540322.09375,0,0,0.0,0.0,1.0
1628540322.5625,0,0,27.216102652431335,0.0,1.0
1628540323.03125,0,0,0.0,0.0,1.0
1628540323.5,0,0,22.348247655168258,0.0,1.0
1628540323.96875,0,0,26.20822362284358,0.0,1.0
1628540324.4375,0,0,20.428735597927474,0.0,1.0
1628540324.90625,0,0,24.546602787340777,0.0,1.0
1628540325.375,0,0,19.644633375766123,0.0,1.0
1628540325.84375,0,0,28.10645791926847,0.0,1.0
1628540326.3125,0,0,0.0,0.0,1.0
1628540326.78125,0,0,29.68160426530467,0.0,1.0
1628540327.25,0,0,0.0,0.0,1.0
1628540327.71875,0,0,29.162745635840977,0.0,1.0
1628540328.1875,0,0,26.650749431375253,0.0,1.0
1628540328.65625,0,0,20.057235412598153,0.0,1.0
1628540329.125,0,0,24.485142623426842,0.0,1.0
1628540329.59375,0,0,15.461649772066393,0.0,1.0
1628540330.0625,0,0,19.343352989357694,0.0,1.0
1628540330.53125,0,0,21.686033521041324,0.0,1.0
1628540331.0,0,0,16.345448652593287,0.0,1.0
1628540331.46875,0,0,18.44150390516209,0.0,1.0
1628540331.9375,0,0,13.655679321001154,0.0,1.0
1628540332.40625,0,0,21.44518800766276,0.0,1.0
1628540332.875,0,0,0.0,0.0,1.0
1628540333.34375,0,0,15.97905686695644,0.0,1.0
1628540333.8125,0,0,0.0,0.0,1.0
1628540334.28125,0,0,17.27556467493561,0.0,1.0
1628540334.75,0,0,16.54472805348632,0.0,1.0
1628540335.21875,0,0,15.295166045083779,0.0,1.0
1628540335.6875,0,0,19.622402449803484,0.0,1.0
1628540336.15625,0,0,0.0,0.0,1.0
1628540336.625,0,0,20.341397238040077,0.0,1.0
1628540337.09375,0,0,0.0,0.0,1.0
1628540337.5625,0,0,18.685380629339175,0.0,1.0
1628540338.03125,0,0,23.975672418116048,0.0,1.0
1628540338.5,0,0,0.0,0.0,1.0
1628540338.96875,0,0,23.25794578307153,0.0,1.0
1628540339.4375,0,0,0.0,0.0,1.0
1628540339.90625,0,0,0.0,0.0,1.0
1628540340.375,0,0,20.649727093490835,0.0,1.0
1628540340.84375,0,0,13.144926581446258,0.0,1.0
1628540341.3125,0,0,23.557103529382616,0.0,1.0
1628540341.78125,0,0,20.27702959767844,0.0,1.0
1628540342.25,0,0,12.318452562957816,0.0,1.0
1628540342.71875,0,0,19.65792069075755,0.0,1.0
1628540343.1875,0,0,0.0,0.0,1.0
1628540343.65625,0,0,17.148699204273065,0.0,1.0
1628540344.125,0,0,0.0,0.0,1.0
1628540344.59375,0,0,14.502190857454512,0.0,1.0
1628540345.0625,0,0,15.49319682134049,0.0,1.0
1628540345.53125,0,0,0.0,0.0,1.0
1628540346.0,0,0,16.47639362438976,0.0,1.0
1628540346.46875,0,0,0.0,0.0,1.0
1628540346.9375,0,0,16.033827023564914,0.0,1.0
1628540347.40625,0,0,16.184373219477575,0.0,1.0
1628540347.875,0,0,9.517846465069628,0.0,1.0
1628540348.34375,0,0,19.69879563210092,0.0,1.0
1628540348.8125,0,0,0.0,0.0,1.0
1628540349.28125,0,0,21.849803047809665,0.0,1.0
1628540349.75,0,0,22.235729678174035,0.0,1.0
1628540350.21875,0,0,0.0,0.0,1.0
1628540350.6875,0,0,18.92154763184503,0.0,1.0
1628540351.15625,0,0,23.447223541634404,0.0,1.0
1628540351.625,0,0,14.670416040375935,0.0,1.0
1628540352.09375,0,0,18.831640392194643,0.0,1.0
1628540352.5625,0,0,0.0,0.0,1.0
1628540353.03125,0,0,19.85471969934589,0.0,1.0
1628540353.5,0,0,18.873620522057212,0.0,1.0
1628540353.96875,0,0,0.0,0.0,1.0
1628540354.4375,0,0,17.54038404388602,0.0,1.0
1628540354.90625,0,0,20.905702746016733,0.0,1.0
1628540355.375,0,0,0.0,0.0,1.0
1628540355.84375,0,0,14.38763141436272,0.0,1.0
1628540356.3125,0,0,0.0,0.0,1.0
1628540356.78125,0,0,19.512397724511814,0.0,1.0
1628540357.25,0,0,18.041399631486094,0.0,1.0
1628540357.71875,0,0,17.355245441356086,0.0,1.0
1628540358.1875,0,0,22.86970716819757,0.0,1.0
1628540358.65625,0,0,0.0,0.0,1.0
1628540359.125,0,0,13.482153936970281,0.0,1.0
1628540359.59375,0,0,18.093005731179854,0.0,1.0
1628540360.0625,0,0,11.133925763123393,0.0,1.0
1628540360.53125,0,0,20.99688269474388,0.0,1.0
1628540361.0,0,0,22.875990154929642,0.0,1.0
1628540361.46875,0,0,10.548307940015302,0.0,1.0
1628540361.9375,0,0,20.73277772146064,0.0,1.0
1628540362.40625,0,0,17.26629938466707,0.0,1.0
1628540362.875,0,0,13.815032762628395,0.0,1.0
1628540363.34375,0,0,15.563408997924617,0.0,1.0
1628540363.8125,0,0,0.0,0.0,1.0
1628540364.28125,0,0,19.14390309317155,0.0,1.0
1628540364.75,0,0,22.400625419317272,0.0,1.0
1628540365.21875,0,0,0.0,0.0,1.0
1628540365.6875,0,0,20.931944467087188,0.0,1.0
1628540366.15625,0,0,15.911119367764604,0.0,1.0
1628540366.625,0,0,0.0,0.0,1.0
1628540367.09375,0,0,20.756819731163056,0.0,1.0
1628540367.5625,0,0,0.0,0.0,1.0
1628540368.03125,0,0,17.119635633509684,0.0,1.0
1628540368.5,0,0,24.322627899065814,0.0,1.0
1628540368.96875,0,0,0.0,0.0,1.0
1628540369.4375,0,0,18.266681667389072,0.0,1.0
1628540369.90625,0,0,23.583257263018645,0.0,1.0
1628540370.375,0,0,16.50193151131072,0.0,1.0
1628540370.84375,0,0,14.723314679708214,0.0,1.0
1628540371.3125,0,0,0.0,0.0,1.0
1628540371.78125,0,0,16.793305292172462,0.0,1.0
1628540372.25,0,0,20.211727541781215,0.0,1.0
1628540372.71875,0,0,0.0,0.0,1.0
1628540373.1875,0,0,18.33666397358398,0.0,1.0
1628540373.65625,0,0,9.137272692585395,0.0,1.0
1628540374.125,0,0,89.32652991697013,0.0,1.0
1628540374.59375,0,0,-77.9458953328552,0.0,1.0
1628540375.0625,0,0,160.05614790192985,0.0,1.0
1628540375.53125,0,0,-4.389429804253906,0.0,1.0
1628540376.0,0,0,10.860555432871847,0.0,1.0
1628540376.46875,0,0,0.0,0.0,1.0
1628540376.9375,0,0,23.97533358965917,0.0,1.0
1628540377.40625,0,0,20.187333906500847,0.0,1.0
1628540377.875,0,0,11.784452275435866,0.0,1.0
1628540378.34375,0,0,21.973413218559436,0.0,1.0
1628540378.8125,0,0,0.0,0.0,1.0
1628540379.28125,0,0,25.88399867171725,0.0,1.0
1628540379.75,0,0,25.463731595702985,0.0,1.0
1628540380.21875,0,0,0.0,0.0,1.0
1628540380.6875,0,0,27.611513912112336,0.0,1.0
1628540381.15625,0,0,0.0,0.0,1.0
1628540381.625,0,0,28.09225702642471,0.0,1.0
1628540382.09375,0,0,24.789386496922113,0.0,1.0
1628540382.5625,0,0,18.197301633863507,0.0,1.0
1628540383.03125,0,0,24.3974376944609,0.0,1.0
1628540383.5,0,0,14.014033718282265,0.0,1.0
1628540383.96875,0,0,20.521170402419685,0.0,1.0
1628540384.4375,0,0,23.395123375667115,0.0,1.0
1628540384.90625,0,0,0.0,0.0,1.0
1628540385.375,0,0,26.818370450194152,0.0,1.0
1628540385.84375,0,0,0.0,0.0,1.0
1628540386.3125,0,0,25.95861954654846,0.0,1.0
1628540386.78125,0,0,29.84961272551283,0.0,1.0
1628540387.25,0,0,21.623978882701323,0.0,1.0
1628540387.71875,0,0,29.220929548842804,0.0,1.0
1628540388.1875,0,0,26.836746470129672,0.0,1.0
1628540388.65625,0,0,27.043459477996617,0.0,1.0
1628540389.125,0,0,0.0,0.0,1.0
1628540389.59375,0,0,29.00864053828485,0.0,1.0
1628540390.0625,0,0,33.741656392462495,0.0,1.0
1628540390.53125,0,0,0.0,0.0,1.0
1628540391.0,0,0,36.294704520558014,0.0,1.0
1628540391.46875,0,0,0.0,0.0,1.0
1628540391.9375,0,0,37.72805963852612,0.0,1.0
1628540392.40625,0,0,39.6885947138273,0.0,1.0
1628540392.875,0,0,29.96755803635493,0.0,1.0
1628540393.34375,0,0,36.3386643951908,0.0,1.0
1628540393.8125,0,0,31.29542604563218,0.0,1.0
1628540394.28125,0,0,32.016315436066,0.0,1.0
1628540394.75,0,0,0.0,0.0,1.0
1628540395.21875,0,0,41.31071122763739,0.0,1.0
1628540395.6875,0,0,34.00411888640097,0.0,1.0
1628540396.15625,0,0,31.64581135455824,0.0,1.0
1628540396.625,0,0,40.011507920083915,0.0,1.0
1628540397.09375,0,0,25.97702300380452,0.0,1.0
1628540397.5625,0,0,41.197542837537,0.0,1.0
1628540398.03125,0,0,0.0,0.0,1.0
1628540398.5,0,0,42.349409645538394,0.0,1.0
1628540398.96875,0,0,32.58928252579392,0.0,1.0
1628540399.4375,0,0,26.577348649405963,0.0,1.0
1628540399.90625,0,0,36.395180206754375,0.0,1.0
1628540400.375,0,0,0.0,0.0,1.0
1628540400.84375,0,0,41.42848628991819,0.0,1.0
1628540401.3125,0,0,41.58094093689084,0.0,1.0
1628540401.78125,0,0,29.080696770193565,0.0,1.0
1628540402.25,0,0,29.737714134386906,0.0,1.0
1628540402.71875,0,0,24.19755443935507,0.0,1.0
1628540403.1875,0,0,27.42899923223792,0.0,1.0
1628540403.65625,0,0,0.0,0.0,1.0
1628540404.125,0,0,31.336420897302844,0.0,1.0
1628540404.59375,0,0,0.0,0.0,1.0
1628540405.0625,0,0,18.84862666044331,0.0,1.0
1628540405.53125,0,0,27.44256219191737,0.0,1.0
1628540406.0,0,0,21.723810517086577,0.0,1.0
1628540406.46875,0,0,24.482705167667884,0.0,1.0
1628540406.9375,0,0,16.157504809856416,0.0,1.0
1628540407.40625,0,0,26.91733735606182,0.0,1.0
1628540407.875,0,0,0.0,0.0,1.0
1628540408.34375,0,0,29.303420809199704,0.0,1.0
1628540408.8125,0,0,24.446785027343648,0.0,1.0
1628540409.28125,0,0,21.699905186742242,0.0,1.0
1628540409.75,0,0,23.63586978279156,0.0,1.0
1628540410.21875,0,0,13.387268454153828,0.0,1.0
1628540410.6875,0,0,27.341150928084918,0.0,1.0
1628540411.15625,0,0,0.0,0.0,1.0
1628540411.625,0,0,0.0,0.0,1.0
1628540412.09375,0,0,33.60825785697054,0.0,1.0
1628540412.5625,0,0,0.0,0.0,1.0
1628540413.03125,0,0,27.063159462934085,0.0,1.0
1628540413.5,0,0,0.0,0.0,1.0
1628540413.96875,0,0,18.68608611590445,0.0,1.0
1628540414.4375,0,0,17.36722778640468,0.0,1.0
1628540414.90625,0,0,14.35251147170758,0.0,1.0
1628540415.375,0,0,19.07629857499846,0.0,1.0
1628540415.84375,0,0,12.554980877663409,0.0,1.0
1628540416.3125,0,0,14.809509456967374,0.0,1.0
1628540416.78125,0,0,0.0,0.0,1.0
1628540417.25,0,0,17.787432373769672,0.0,1.0
1628540417.71875,0,0,0.0,0.0,1.0
1628540418.1875,0,0,23.545531650841028,0.0,1.0
1628540418.65625,0,0,15.86187492326268,0.0,1.0
1628540419.125,0,0,13.047334705631753,0.0,1.0
1628540419.59375,0,0,23.71086727821698,0.0,1.0
1628540420.0625,0,0,19.83892164793758,0.0,1.0
1628540420.53125,0,0,26.719427510828577,0.0,1.0
1628540421.0,0,0,0.0,0.0,1.0
1628540421.46875,0,0,26.546144055312144,0.0,1.0
1628540421.9375,0,0,0.0,0.0,1.0
1628540422.40625,0,0,21.71675435273561,0.0,1.0
1628540422.875,0,0,26.770420079770606,0.0,1.0
1628540423.34375,0,0,17.931146981077344,0.0,1.0
1628540423.8125,0,0,25.85065321239772,0.0,1.0
1628540424.28125,0,0,0.0,0.0,1.0
1628540424.75,0,0,24.08101877680965,0.0,1.0
1628540425.21875,0,0,25.28504346055227,0.0,1.0
1628540425.6875,0,0,18.008452760244968,0.0,1.0
1628540426.15625,0,0,21.062686924083128,0.0,1.0
1628540426.625,0,0,28.15604651689074,0.0,1.0
1628540427.09375,0,0,0.0,0.0,1.0
1628540427.5625,0,0,24.392045687917154,0.0,1.0
1628540428.03125,0,0,0.0,0.0,1.0
1628540428.5,0,0,28.836329907783544,0.0,1.0
1628540428.96875,0,0,0.0,0.0,1.0
1628540429.4375,0,0,25.33165516063784,0.0,1.0
1628540429.90625,0,0,23.639317825413663,0.0,1.0
1628540430.375,0,0,21.247927522396314,0.0,1.0
1628540430.84375,0,0,27.111817175220345,0.0,1.0
1628540431.3125,0,0,0.0,0.0,1.0
1628540431.78125,0,0,26.461346165964784,0.0,1.0
1628540432.25,0,0,0.0,0.0,1.0
1628540432.71875,0,0,17.718295209089707,0.0,1.0
1628540433.1875,0,0,28.920758322334716,0.0,1.0
1628540433.65625,0,0,19.743309957277706,0.0,1.0
1628540434.125,0,0,27.103330845267077,0.0,1.0
1628540434.59375,0,0,0.0,0.0,1.0
1628540435.0625,0,0,26.29923622774997,0.0,1.0
1628540435.53125,0,0,29.278719844128247,0.0,1.0
1628540436.0,0,0,12.001199347811891,0.0,1.0
1628540436.46875,0,0,30.885147568344365,0.0,1.0
1628540436.9375,0,0,29.870662126853695,0.0,1.0
1628540437.40625,0,0,0.0,0.0,1.0
1628540437.875,0,0,30.97609330285758,0.0,1.0
1628540438.34375,0,0,25.021845256056128,0.0,1.0
1628540438.8125,0,0,28.31951738594316,0.0,1.0
1628540439.28125,0,0,0.0,0.0,1.0
1628540439.75,0,0,29.237394489129407,0.0,1.0
1628540440.21875,0,0,0.0,0.0,1.0
1628540440.6875,0,0,26.110369061677716,0.0,1.0
1628540441.15625,0,0,28.54524463492352,0.0,1.0
1628540441.625,0,0,20.709681028985358,0.0,1.0
1628540442.09375,0,0,28.672619012145486,0.0,1.0
1628540442.5625,0,0,0.0,0.0,1.0
1628540443.03125,0,0,27.255327064487357,0.0,1.0
1628540443.5,0,0,12.4284980688258,0.0,1.0
1628540443.96875,0,0,-13.751382910403246,0.0,1.0
1628540444.4375,0,0,143.1038383859725,0.0,1.0
1628540444.90625,0,0,0.0,0.0,1.0
1628540445.375,0,0,45.957544677523536,0.0,1.0
1628540445.84375,0,0,76.32215450720044,0.0,1.0
1628540446.3125,0,0,0.0,0.0,1.0
1628540446.78125,0,0,-5.957744086987235,0.0,1.0
1628540447.25,0,0,40.463092840620824,0.0,1.0
1628540447.71875,0,0,0.0,0.0,1.0
1628540448.1875,0,0,0.0,0.0,1.0
1628540448.65625,0,0,212.08146125279347,0.0,1.0
1628540449.125,0,0,21.16201526836286,0.0,1.0
1628540449.59375,0,0,0.0,0.0,1.0
1628540450.0625,0,0,41.03828179851661,0.0,1.0
1628540450.53125,0,0,38.57775276515307,0.0,1.0
1628540451.0,0,0,0.0,0.0,1.0
1628540451.46875,0,0,52.881974802958574,0.0,1.0
1628540451.9375,0,0,0.0,0.0,1.0
1628540452.40625,0,0,94.64034494609129,0.0,1.0
1628540452.875,0,0,-27.23777757502367,0.0,1.0
1628540453.34375,0,0,7.001325239201109,0.0,1.0
1628540453.8125,0,0,38.72786246611996,0.0,1.0
1628540454.28125,0,0,46.66533415461213,0.0,1.0
1628540454.75,0,0,0.0,0.0,1.0
1628540455.21875,0,0,37.72596352557864,0.0,1.0
1628540455.6875,0,0,0.0,0.0,1.0
1628540456.15625,0,0,31.02226403130856,0.0,1.0
1628540456.625,0,0,31.851899381701823,0.0,1.0
1628540457.09375,0,0,23.809966370452482,0.0,1.0
1628540457.5625,0,0,27.65218737444461,0.0,1.0
1628540458.03125,0,0,22.263105370833284,0.0,1.0
1628540458.5,0,0,34.33074287398789,0.0,1.0
1628540458.96875,0,0,0.0,0.0,1.0
1628540459.4375,0,0,34.22384772578785,0.0,1.0
1628540459.90625,0,0,0.0,0.0,1.0
1628540460.375,0,0,27.744804074868195,0.0,1.0
1628540460.84375,0,0,33.28194027059781,0.0,1.0
1628540461.3125,0,0,22.36628234839873,0.0,1.0
1628540461.78125,0,0,31.18694553334608,0.0,1.0
1628540462.25,0,0,23.568661276506333,0.0,1.0
1628540462.71875,0,0,27.10360006430269,0.0,1.0
1628540463.1875,0,0,0.0,0.0,1.0
1628540463.65625,0,0,30.828410840648164,0.0,1.0
1628540464.125,0,0,31.306525942374243,0.0,1.0
1628540464.59375,0,0,22.11015259562493,0.0,1.0
1628540465.0625,0,0,29.501181030691125,0.0,1.0
1628540465.53125,0,0,21.745164155345545,0.0,1.0
1628540466.0,0,0,31.796994360275214,0.0,1.0
1628540466.46875,0,0,0.0,0.0,1.0
1628540466.9375,0,0,26.657078001143734,0.0,1.0
1628540467.40625,0,0,0.0,0.0,1.0
1628540467.875,0,0,28.291864820446396,0.0,1.0
1628540468.34375,0,0,0.0,0.0,1.0
1628540468.8125,0,0,33.89449399720483,0.0,1.0
1628540469.28125,0,0,0.0,0.0,1.0
1628540469.75,0,0,25.949815726502646,0.0,1.0
1628540470.21875,0,0,22.248089148371317,0.0,1.0
1628540470.6875,0,0,21.093381080379366,0.0,1.0
1628540471.15625,0,0,21.987485487143655,0.0,1.0
1628540471.625,0,0,21.008246459972494,0.0,1.0
1628540472.09375,0,0,25.3955298089237,0.0,1.0
1628540472.5625,0,0,0.0,0.0,1.0
1628540473.03125,0,0,26.82286433990576,0.0,1.0
1628540473.5,0,0,0.0,0.0,1.0
1628540473.96875,0,0,15.80371886318581,0.0,1.0
1628540474.4375,0,0,27.051836791445293,0.0,1.0
1628540474.90625,0,0,15.484079156955383,0.0,1.0
1628540475.375,0,0,28.26108832035458,0.0,1.0
1628540475.84375,0,0,0.0,0.0,1.0
1628540476.3125,0,0,20.527016667455264,0.0,1.0
1628540476.78125,0,0,28.74914999974082,0.0,1.0
1628540477.25,0,0,0.0,0.0,1.0
1628540477.71875,0,0,24.18545461011242,0.0,1.0
1628540478.1875,0,0,0.0,0.0,1.0
1628540478.65625,0,0,22.639520014193455,0.0,1.0
1628540479.125,0,0,16.171071235845428,0.0,1.0
1628540479.59375,0,0,16.613024313338258,0.0,1.0
1628540480.0625,0,0,18.490040915472242,0.0,1.0
1628540480.53125,0,0,15.983622708566932,0.0,1.0
1628540481.0,0,0,18.027594228362037,0.0,1.0
1628540481.46875,0,0,0.0,0.0,1.0
1628540481.9375,0,0,19.62321098017003,0.0,1.0
1628540482.40625,0,0,0.0,0.0,1.0
1628540482.875,0,0,19.927049770234923,0.0,1.0
1628540483.34375,0,0,0.0,0.0,1.0
1628540483.8125,0,0,21.830520839423468,0.0,1.0
1628540484.28125,0,0,27.56008969202122,0.0,1.0
1628540484.75,0,0,22.668117129239437,0.0,1.0
1628540485.21875,0,0,29.15653855620971,0.0,1.0
1628540485.6875,0,0,0.0,0.0,1.0
1628540486.15625,0,0,28.30079081299906,0.0,1.0
1628540486.625,0,0,0.0,0.0,1.0
1628540487.09375,0,0,25.87403100938369,0.0,1.0
1628540487.5625,0,0,22.25685205097313,0.0,1.0
1628540488.03125,0,0,14.358393708842815,0.0,1.0
1628540488.5,0,0,23.5095826217143,0.0,1.0
1628540488.96875,0,0,0.0,0.0,1.0
1628540489.4375,0,0,21.413925625492748,0.0,1.0
1628540489.90625,0,0,24.85496587349029,0.0,1.0
1628540490.375,0,0,16.900657053438216,0.0,1.0
1628540490.84375,0,0,23.29821411925743,0.0,1.0
1628540491.3125,0,0,0.0,0.0,1.0
1628540491.78125,0,0,22.469711389396764,0.0,1.0
1628540492.25,0,0,0.0,0.0,1.0
1628540492.71875,0,0,16.21447146639881,0.0,1.0
1628540493.1875,0,0,23.402279776468443,0.0,1.0
1628540493.65625,0,0,18.609439709336794,0.0,1.0
1628540494.125,0,0,23.285623028699632,0.0,1.0
1628540494.59375,0,0,20.429839939248723,0.0,1.0
1628540495.0625,0,0,20.645440904654635,0.0,1.0
1628540495.53125,0,0,16.484443247217342,0.0,1.0
1628540496.0,0,0,21.2555249150487,0.0,1.0
1628540496.46875,0,0,0.0,0.0,1.0
1628540496.9375,0,0,23.670377843867257,0.0,1.0
1628540497.40625,0,0,0.0,0.0,1.0
1628540497.875,0,0,24.372799063608742,0.0,1.0
1628540498.34375,0,0,0.0,0.0,1.0
1628540498.8125,0,0,27.500611756952146,0.0,1.0
1628540499.28125,0,0,24.323122609793053,0.0,1.0
1628540499.75,0,0,20.02635443966807,0.0,1.0
1628540500.21875,0,0,27.672409561066495,0.0,1.0
1628540500.6875,0,0,0.0,0.0,1.0
1628540501.15625,0,0,27.920479207712,0.0,1.0
1628540501.625,0,0,0.0,0.0,1.0
1628540502.09375,0,0,18.05764800321736,0.0,1.0
1628540502.5625,0,0,26.30422680040079,0.0,1.0
1628540503.03125,0,0,20.650720018028984,0.0,1.0
1628540503.5,0,0,25.019599218301888,0.0,1.0
1628540503.96875,0,0,18.299868749383748,0.0,1.0
1628540504.4375,0,0,24.879220099862177,0.0,1.0
1628540504.90625,0,0,0.0,0.0,1.0
1628540505.375,0,0,20.56907446549137,0.0,1.0
1628540505.84375,0,0,23.114038606289853,0.0,1.0
1628540506.3125,0,0,11.487961288300072,0.0,1.0
1628540506.78125,0,0,27.38388011884731,0.0,1.0
1628540507.25,0,0,0.0,0.0,1.0
1628540507.71875,0,0,27.37764783893541,0.0,1.0
1628540508.1875,0,0,30.219639887338985,0.0,1.0
1628540508.65625,0,0,22.990658623317202,0.0,1.0
1628540509.125,0,0,29.9726567955289,0.0,1.0
1628540509.59375,0,0,0.0,0.0,1.0
1628540510.0625,0,0,27.662695676783244,0.0,1.0
1628540510.53125,0,0,0.0,0.0,1.0
1628540511.0,0,0,0.0,0.0,1.0
1628540511.46875,0,0,21.80664569383936,0.0,1.0
1628540511.9375,0,0,0.0,0.0,1.0
1628540512.40625,0,0,21.764947832271368,0.0,1.0
1628540512.875,0,0,29.878975996506522,0.0,1.0
1628540513.34375,0,0,27.902175913216315,0.0,1.0
1628540513.8125,0,0,11.435893241605392,0.0,1.0
1628540514.28125,0,0,35.94859832433124,0.0,1.0
1628540514.75,0,0,23.060041873881776,0.0,1.0
1628540515.21875,0,0,16.917056246047093,0.0,1.0
1628540515.6875,0,0,0.2169955093776085,0.0,1.0
1628540516.15625,0,0,16.468094452761584,0.0,1.0
1628540516.625,0,0,11.702515704712521,0.0,1.0
1628540517.09375,0,0,4.937515795327076,0.0,1.0
1628540517.5625,0,0,13.499075527796267,0.0,1.0
1628540518.03125,0,0,14.791966467655472,0.0,1.0
1628540518.5,0,0,2.8213726120267837,0.0,1.0
1628540518.96875,0,0,16.650499614559145,0.0,1.0
1628540519.4375,0,0,17.409977596463897,0.0,1.0
1628540519.90625,0,0,6.093237667591343,0.0,1.0
1628540520.375,0,0,21.778510560242683,0.0,1.0
1628540520.84375,0,0,0.0,0.0,1.0
1628540521.3125,0,0,22.747258724303464,0.0,1.0
1628540521.78125,0,0,0.0,0.0,1.0
1628540522.25,0,0,18.587868576195827,0.0,1.0
1628540522.71875,0,0,28.498686301426893,0.0,1.0
1628540523.1875,0,0,17.63463157984919,0.0,1.0
1628540523.65625,0,0,28.025587017060197,0.0,1.0
1628540524.125,0,0,0.0,0.0,1.0
1628540524.59375,0,0,24.318993759457978,0.0,1.0
1628540525.0625,0,0,0.0,0.0,1.0
1628540525.53125,0,0,26.239164342844354,0.0,1.0
1628540526.0,0,0,0.0,0.0,1.0
1628540526.46875,0,0,33.73185792455387,0.0,1.0
1628540526.9375,0,0,23.38701248012697,0.0,1.0
1628540527.40625,0,0,16.23928658332199,0.0,1.0
1628540527.875,0,0,25.804217823271895,0.0,1.0
1628540528.34375,0,0,19.457901889619773,0.0,1.0
1628540528.8125,0,0,24.282258280056386,0.0,1.0
1628540529.28125,0,0,0.0,0.0,1.0
1628540529.75,0,0,26.599761011394556,0.0,1.0
1628540530.21875,0,0,0.0,0.0,1.0
1628540530.6875,0,0,28.772834917592274,0.0,1.0
1628540531.15625,0,0,30.509077116702674,0.0,1.0
1628540531.625,0,0,22.893630674837024,0.0,1.0
1628540532.09375,0,0,29.094813487926324,0.0,1.0
1628540532.5625,0,0,20.42720363771878,0.0,1.0
1628540533.03125,0,0,28.02223178330432,0.0,1.0
1628540533.5,0,0,30.13721897944954,0.0,1.0
1628540533.96875,0,0,18.480431374974987,0.0,1.0
1628540534.4375,0,0,32.09735652482561,0.0,1.0
1628540534.90625,0,0,0.0,0.0,1.0
1628540535.375,0,0,31.513282837398258,0.0,1.0
1628540535.84375,0,0,32.84097951904248,0.0,1.0
1628540536.3125,0,0,27.291840145515796,0.0,1.0
1628540536.78125,0,0,32.25441161111419,0.0,1.0
1628540537.25,0,0,28.115752377808224,0.0,1.0
1628540537.71875,0,0,31.0312622931763,0.0,1.0
1628540538.1875,0,0,27.704130512930853,0.0,1.0
1628540538.65625,0,0,29.774463003693445,0.0,1.0
1628540539.125,0,0,22.528441612598623,0.0,1.0
1628540539.59375,0,0,25.884474528366198,0.0,1.0
1628540540.0625,0,0,0.0,0.0,1.0
1628540540.53125,0,0,27.91408158891448,0.0,1.0
1628540541.0,0,0,0.0,0.0,1.0
1628540541.46875,0,0,28.96448797824865,0.0,1.0
1628540541.9375,0,0,0.0,0.0,1.0
1628540542.40625,0,0,23.860435975103947,0.0,1.0
1628540542.875,0,0,32.32575147565541,0.0,1.0
1628540543.34375,0,0,21.69327700497857,0.0,1.0
1628540543.8125,0,0,31.384925735292303,0.0,1.0
1628540544.28125,0,0,0.0,0.0,1.0
1628540544.75,0,0,26.402776015835144,0.0,1.0
1628540545.21875,0,0,29.33193398472057,0.0,1.0
1628540545.6875,0,0,0.0,0.0,1.0
1628540546.15625,0,0,31.91428230761241,0.0,1.0
1628540546.625,0,0,30.8733441347638,0.0,1.0
1628540547.09375,0,0,0.0,0.0,1.0
1628540547.5625,0,0,29.7973046163252,0.0,1.0
1628540548.03125,0,0,0.0,0.0,1.0
1628540548.5,0,0,29.941205073449037,0.0,1.0
1628540548.96875,0,0,28.395421976910182,0.0,1.0
1628540549.4375,0,0,0.0,0.0,1.0
1628540549.90625,0,0,29.77116578524177,0.0,1.0
1628540550.375,0,0,0.0,0.0,1.0
1628540550.84375,0,0,19.556512831450522,0.0,1.0
1628540551.3125,0,0,28.397375591003687,0.0,1.0
1628540551.78125,0,0,0.0,0.0,1.0
1628540552.25,0,0,32.70016819592354,0.0,1.0
1628540552.71875,0,0,34.705181658642026,0.0,1.0
1628540553.1875,0,0,0.0,0.0,1.0
1628540553.65625,0,0,34.255761267324395,0.0,1.0
1628540554.125,0,0,0.0,0.0,1.0
1628540554.59375,0,0,33.72097073965339,0.0,1.0
1628540555.0625,0,0,27.315660809756288,0.0,1.0
1628540555.53125,0,0,12.478617374130621,0.0,1.0
1628540556.0,0,0,30.624595850359785,0.0,1.0
1628540556.46875,0,0,29.48237841347601,0.0,1.0
1628540556.9375,0,0,0.0,0.0,1.0
1628540557.40625,0,0,31.857068044263347,0.0,1.0
1628540557.875,0,0,0.0,0.0,1.0
1628540558.34375,0,0,30.41510585206809,0.0,1.0
1628540558.8125,0,0,28.707452856547672,0.0,1.0
1628540559.28125,0,0,19.904452793439546,0.0,1.0
1628540559.75,0,0,24.304749224716367,0.0,1.0
1628540560.21875,0,0,0.0,0.0,1.0
1628540560.6875,0,0,25.171833708303172,0.0,1.0
1628540561.15625,0,0,0.0,0.0,1.0
1628540561.625,0,0,23.497114108230004,0.0,1.0
1628540562.09375,0,0,24.359666797968718,0.0,1.0
1628540562.5625,0,0,18.699997117174128,0.0,1.0
1628540563.03125,0,0,24.295281781973248,0.0,1.0
1628540563.5,0,0,20.187261016942788,0.0,1.0
1628540563.96875,0,0,25.850713594707685,0.0,1.0
1628540564.4375,0,0,21.829940539513682,0.0,1.0
1628540564.90625,0,0,22.215149111046063,0.0,1.0
1628540565.375,0,0,18.156936087664384,0.0,1.0
1628540565.84375,0,0,29.2044178939774,0.0,1.0
1628540566.3125,0,0,0.0,0.0,1.0
1628540566.78125,0,0,27.4511476596956,0.0,1.0
1628540567.25,0,0,32.63708964847007,0.0,1.0
1628540567.71875,0,0,19.256965264308498,0.0,1.0
1628540568.1875,0,0,29.1350048675306,0.0,1.0
1628540568.65625,0,0,0.0,0.0,1.0
1628540569.125,0,0,27.301657327220042,0.0,1.0
1628540569.59375,0,0,24.926004899218007,0.0,1.0
1628540570.0625,0,0,14.02228765810531,0.0,1.0
1628540570.53125,0,0,30.918496581598045,0.0,1.0
1628540571.0,0,0,0.0,0.0,1.0
1628540571.46875,0,0,29.118112101712153,0.0,1.0
1628540571.9375,0,0,29.214084386697852,0.0,1.0
1628540572.40625,0,0,0.0,0.0,1.0
1628540572.875,0,0,28.924405390094474,0.0,1.0
1628540573.34375,0,0,0.0,0.0,1.0
1628540573.8125,0,0,23.592795789211287,0.0,1.0
1628540574.28125,0,0,32.50190954868309,0.0,1.0
1628540574.75,0,0,0.0,0.0,1.0
1628540575.21875,0,0,31.207402900464697,0.0,1.0
1628540575.6875,0,0,33.73168447419922,0.0,1.0
1628540576.15625,0,0,0.0,0.0,1.0
1628540576.625,0,0,36.18633812341325,0.0,1.0
1628540577.09375,0,0,0.0,0.0,1.0
1628540577.5625,0,0,36.729209387847035,0.0,1.0
1628540578.03125,0,0,0.0,0.0,1.0
1628540578.5,0,0,29.38684796706067,0.0,1.0
1628540578.96875,0,0,18.1175063758623,0.0,1.0
1628540579.4375,0,0,20.93218614546124,0.0,1.0
1628540579.90625,0,0,33.54314154510344,0.0,1.0
1628540580.375,0,0,24.521063691584594,0.0,1.0
1628540580.84375,0,0,27.777152440344157,0.0,1.0
1628540581.3125,0,0,0.0,0.0,1.0
1628540581.78125,0,0,31.822418993092548,0.0,1.0
1628540582.25,0,0,35.91323117794632,0.0,1.0
1628540582.71875,0,0,0.0,0.0,1.0
1628540583.1875,0,0,32.009234004660605,0.0,1.0
1628540583.65625,0,0,0.0,0.0,1.0
1628540584.125,0,0,28.06002495668485,0.0,1.0
1628540584.59375,0,0,33.11548985244217,0.0,1.0
1628540585.0625,0,0,0.0,0.0,1.0
1628540585.53125,0,0,31.015667072535408,0.0,1.0
1628540586.0,0,0,0.0,0.0,1.0
1628540586.46875,0,0,0.0,0.0,1.0
1628540586.9375,0,0,24.42812962619679,0.0,1.0
1628540587.40625,0,0,18.048843424362136,0.0,1.0
1628540587.875,0,0,21.661873984063046,0.0,1.0
1628540588.34375,0,0,0.0,0.0,1.0
1628540588.8125,0,0,21.463185881134862,0.0,1.0
1628540589.28125,0,0,25.079357823798478,0.0,1.0
1628540589.75,0,0,0.0,0.0,1.0
1628540590.21875,0,0,22.05513783676135,0.0,1.0
1628540590.6875,0,0,20.49550103862262,0.0,1.0
1628540591.15625,0,0,25.4674927456586,0.0,1.0
1628540591.625,0,0,0.0,0.0,1.0
1628540592.09375,0,0,24.75342088966009,0.0,1.0
1628540592.5625,0,0,0.0,0.0,1.0
1628540593.03125,0,0,29.64595216011867,0.0,1.0
1628540593.5,0,0,31.741665249938997,0.0,1.0
1628540593.96875,0,0,20.83961891495653,0.0,1.0
1628540594.4375,0,0,30.49849091573013,0.0,1.0
1628540594.90625,0,0,19.107655031596405,0.0,1.0
1628540595.375,0,0,28.033291405471527,0.0,1.0
1628540595.84375,0,0,0.0,0.0,1.0
1628540596.3125,0,0,25.80053064205395,0.0,1.0
1628540596.78125,0,0,23.145327889374663,0.0,1.0
1628540597.25,0,0,8.192914761945065,0.0,1.0
1628540597.71875,0,0,23.368289111999342,0.0,1.0
1628540598.1875,0,0,24.843666193967913,0.0,1.0
1628540598.65625,0,0,0.0,0.0,1.0
1628540599.125,0,0,23.4414876391528,0.0,1.0
1628540599.59375,0,0,22.302046287518564,0.0,1.0
1628540600.0625,0,0,15.701199354412275,0.0,1.0
1628540600.53125,0,0,23.60129108926795,0.0,1.0
1628540601.0,0,0,0.0,0.0,1.0
1628540601.46875,0,0,19.41425064874366,0.0,1.0
1628540601.9375,0,0,22.682405734288732,0.0,1.0
1628540602.40625,0,0,16.733633831133144,0.0,1.0
1628540602.875,0,0,23.659388544426182,0.0,1.0
1628540603.34375,0,0,16.01799853333287,0.0,1.0
1628540603.8125,0,0,23.593128813265462,0.0,1.0
1628540604.28125,0,0,0.0,0.0,1.0
1628540604.75,0,0,23.0986364039835,0.0,1.0
1628540605.21875,0,0,20.448180553832923,0.0,1.0
1628540605.6875,0,0,0.0,0.0,1.0
1628540606.15625,0,0,25.1236677407095,0.0,1.0
1628540606.625,0,0,0.0,0.0,1.0
1628540607.09375,0,0,12.909047449586398,0.0,1.0
1628540607.5625,0,0,19.42346771260643,0.0,1.0
1628540608.03125,0,0,0.0,0.0,1.0
1628540608.5,0,0,21.634999756221458,0.0,1.0
1628540608.96875,0,0,22.013866655660813,0.0,1.0
1628540609.4375,0,0,17.923633215050103,0.0,1.0
1628540609.90625,0,0,26.029890771434655,0.0,1.0
1628540610.375,0,0,0.0,0.0,1.0
1628540610.84375,0,0,19.881987012722526,0.0,1.0
1628540611.3125,0,0,24.820820319792205,0.0,1.0
1628540611.78125,0,0,0.0,0.0,1.0
1628540612.25,0,0,25.578012503137316,0.0,1.0
1628540612.71875,0,0,23.16240912891418,0.0,1.0
1628540613.1875,0,0,20.370972466826306,0.0,1.0
1628540613.65625,0,0,30.801323449304377,0.0,1.0
1628540614.125,0,0,0.0,0.0,1.0
1628540614.59375,0,0,19.83658659040302,0.0,1.0
1628540615.0625,0,0,11.869542052179407,0.0,1.0
1628540615.53125,0,0,9.799639347823065,0.0,1.0
1628540616.0,0,0,22.610157613396517,0.0,1.0
1628540616.46875,0,0,0.0,0.0,1.0
1628540616.9375,0,0,37.50030615243556,0.0,1.0
1628540617.40625,0,0,23.39194805819607,0.0,1.0
1628540617.875,0,0,17.871307181395686,0.0,1.0
1628540618.34375,0,0,34.97808342264825,0.0,1.0
1628540618.8125,0,0,0.0,0.0,1.0
1628540619.28125,0,0,0.0,0.0,1.0
1628540619.75,0,0,0.0,0.0,1.0
1628540620.21875,0,0,77.20454936976766,0.0,1.0
1628540620.6875,0,0,-2.769123518492216,0.0,1.0
1628540621.15625,0,0,35.23321045077166,0.0,1.0
1628540621.625,0,0,0.0,0.0,1.0
1628540622.09375,0,0,28.96522279673153,0.0,1.0
1628540622.5625,0,0,35.996748866537914,0.0,1.0
1628540623.03125,0,0,0.0,0.0,1.0
1628540623.5,0,0,37.43475248484371,0.0,1.0
1628540623.96875,0,0,29.761674980948378,0.0,1.0
1628540624.4375,0,0,0.0,0.0,1.0
1628540624.90625,0,0,34.245858651382775,0.0,1.0
1628540625.375,0,0,37.28435138442447,0.0,1.0
1628540625.84375,0,0,0.0,0.0,1.0
1628540626.3125,0,0,36.73440712061298,0.0,1.0
1628540626.78125,0,0,0.0,0.0,1.0
1628540627.25,0,0,33.569307425897705,0.0,1.0
1628540627.71875,0,0,0.0,0.0,1.0
1628540628.1875,0,0,33.954754045408194,0.0,1.0
1628540628.65625,0,0,33.7491998708454,0.0,1.0
1628540629.125,0,0,25.261320176281284,0.0,1.0
1628540629.59375,0,0,36.53503141957365,0.0,1.0
1628540630.0625,0,0,0.0,0.0,1.0
1628540630.53125,0,0,38.345125330560435,0.0,1.0
1628540631.0,0,0,0.0,0.0,1.0
1628540631.46875,0,0,0.0,0.0,1.0
1628540631.9375,0,0,19.228370382438253,0.0,1.0
1628540632.40625,0,0,0.0,0.0,1.0
1628540632.875,0,0,17.85765681012768,0.0,1.0
1628540633.34375,0,0,22.28768228157834,0.0,1.0
1628540633.8125,0,0,0.0,0.0,1.0
1628540634.28125,0,0,18.761169746667456,0.0,1.0
1628540634.75,0,0,21.2785534428425,0.0,1.0
1628540635.21875,0,0,0.0,0.0,1.0
1628540635.6875,0,0,27.374607303517926,0.0,1.0
1628540636.15625,0,0,0.0,0.0,1.0
1628540636.625,0,0,28.63904976830759,0.0,1.0
1628540637.09375,0,0,47.59294697954397,0.0,1.0
1628540637.5625,0,0,0.0,0.0,1.0
1628540638.03125,0,0,37.5060110984599,0.0,1.0
1628540638.5,0,0,54.35382033687834,0.0,1.0
1628540638.96875,0,0,0.0,0.0,1.0
1628540639.4375,0,0,55.52247227030151,0.0,1.0
1628540639.90625,0,0,0.0,0.0,1.0
1628540640.375,0,0,36.40477068007247,0.0,1.0
1628540640.84375,0,0,34.232718534167546,0.0,1.0
1628540641.3125,0,0,26.24748634804206,0.0,1.0
1628540641.78125,0,0,0.0,0.0,1.0
1628540642.25,0,0,0.0,0.0,1.0
1628540642.71875,0,0,28.498082433957617,0.0,1.0
1628540643.1875,0,0,24.213591143697332,0.0,1.0
1628540643.65625,0,0,32.48397591202858,0.0,1.0
1628540644.125,0,0,0.0,0.0,1.0
1628540644.59375,0,0,34.10239150492112,0.0,1.0
1628540645.0625,0,0,0.0,0.0,1.0
1628540645.53125,0,0,30.934807499368794,0.0,1.0
1628540646.0,0,0,0.0,0.0,1.0
1628540646.46875,0,0,19.828131141009838,0.0,1.0
1628540646.9375,0,0,32.16681971867957,0.0,1.0
1628540647.40625,0,0,29.7410499827354,0.0,1.0
1628540647.875,0,0,36.64886688613338,0.0,1.0
1628540648.34375,0,0,0.0,0.0,1.0
1628540648.8125,0,0,33.033491039913685,0.0,1.0
1628540649.28125,0,0,24.64790146392344,0.0,1.0
1628540649.75,0,0,11.78899351572953,0.0,1.0
1628540650.21875,0,0,32.34370007846165,0.0,1.0
1628540650.6875,0,0,0.0,0.0,1.0
1628540651.15625,0,0,25.612182550049617,0.0,1.0
1628540651.625,0,0,26.840255148253416,0.0,1.0
1628540652.09375,0,0,17.916839153797838,0.0,1.0
1628540652.5625,0,0,30.028887442541293,0.0,1.0
1628540653.03125,0,0,0.0,0.0,1.0
1628540653.5,0,0,28.697482566791376,0.0,1.0
1628540653.96875,0,0,0.0,0.0,1.0
1628540654.4375,0,0,14.121044564102375,0.0,1.0
1628540654.90625,0,0,29.150485066594726,0.0,1.0
1628540655.375,0,0,18.672914444766548,0.0,1.0
1628540655.84375,0,0,30.81902390525201,0.0,1.0
1628540656.3125,0,0,33.82870620965129,0.0,1.0
1628540656.78125,0,0,21.804172909237536,0.0,1.0
1628540657.25,0,0,23.447385316619847,0.0,1.0
1628540657.71875,0,0,27.336959643737732,0.0,1.0
1628540658.1875,0,0,25.854293365678803,0.0,1.0
1628540658.65625,0,0,28.120794470576204,0.0,1.0
1628540659.125,0,0,24.90264363233278,0.0,1.0
1628540659.59375,0,0,26.20190505072527,0.0,1.0
1628540660.0625,0,0,0.0,0.0,1.0
1628540660.53125,0,0,25.43188978061534,0.0,1.0
1628540661.0,0,0,0.0,0.0,1.0
1628540661.46875,0,0,23.99257964879597,0.0,1.0
1628540661.9375,0,0,21.27241498715826,0.0,1.0
1628540662.40625,0,0,12.939105149627066,0.0,1.0
1628540662.875,0,0,28.810664649758483,0.0,1.0
1628540663.34375,0,0,0.0,0.0,1.0
1628540663.8125,0,0,33.7957979527677,0.0,1.0
1628540664.28125,0,0,33.45772393798832,0.0,1.0
1628540664.75,0,0,0.0,0.0,1.0
1628540665.21875,0,0,32.57060590419232,0.0,1.0
1628540665.6875,0,0,0.0,0.0,1.0
1628540666.15625,0,0,26.07666228757221,0.0,1.0
1628540666.625,0,0,0.0,0.0,1.0
1628540667.09375,0,0,0.0,0.0,1.0
1628540667.5625,0,0,32.78946680632925,0.0,1.0
1628540668.03125,0,0,0.0,0.0,1.0
1628540668.5,0,0,32.451007666887605,0.0,1.0
1628540668.96875,0,0,34.597397249694644,0.0,1.0
1628540669.4375,0,0,0.0,0.0,1.0
1628540669.90625,0,0,22.499150667402553,0.0,1.0
1628540670.375,0,0,0.0,0.0,1.0
1628540670.84375,0,0,18.311563147520193,0.0,1.0
1628540671.3125,0,0,0.0,0.0,1.0
1628540671.78125,0,0,6.858476763699691,0.0,1.0
1628540672.25,0,0,13.797261632418891,0.0,1.0
1628540672.71875,0,0,8.640538637165026,0.0,1.0
1628540673.1875,0,0,15.918642734698553,0.0,1.0
1628540673.65625,0,0,0.0,0.0,1.0
1628540674.125,0,0,0.0,0.0,1.0
1628540674.59375,0,0,19.471594142313737,0.0,1.0
1628540675.0625,0,0,19.885186002106664,0.0,1.0
1628540675.53125,0,0,13.688815211351775,0.0,1.0
1628540676.0,0,0,9.690319661982539,0.0,1.0
1628540676.46875,0,0,7.551695233309502,0.0,1.0
1628540676.9375,0,0,11.327758171646238,0.0,1.0
1628540677.40625,0,0,0.0,0.0,1.0
1628540677.875,0,0,23.379025673689302,0.0,1.0
1628540678.34375,0,0,36.80259436389566,0.0,1.0
1628540678.8125,0,0,0.0,0.0,1.0
1628540679.28125,0,0,22.518724739417035,0.0,1.0
1628540679.75,0,0,33.83534545474563,0.0,1.0
1628540680.21875,0,0,24.426824209761097,0.0,1.0
1628540680.6875,0,0,31.63411268104305,0.0,1.0
1628540681.15625,0,0,0.0,0.0,1.0
1628540681.625,0,0,17.20346410075416,0.0,1.0
1628540682.09375,0,0,25.38909275928638,0.0,1.0
1628540682.5625,0,0,0.0,0.0,1.0
1628540683.03125,0,0,32.8857858093606,0.0,1.0
1628540683.5,0,0,0.0,0.0,1.0
1628540683.96875,0,0,138.75008483145487,0.0,1.0
1628540684.4375,0,0,6.294202978034587,0.0,1.0
1628540684.90625,0,0,20.406129057872676,0.0,1.0
1628540685.375,0,0,19.43201295882071,0.0,1.0
1628540685.84375,0,0,0.0,0.0,1.0
1628540686.3125,0,0,17.222386742710405,0.0,1.0
1628540686.78125,0,0,0.0,0.0,1.0
1628540687.25,0,0,40.0840284592172,0.0,1.0
1628540687.71875,0,0,34.90867904062838,0.0,1.0
1628540688.1875,0,0,0.0,0.0,1.0
1628540688.65625,0,0,31.337335464474098,0.0,1.0
1628540689.125,0,0,31.80990386802945,0.0,1.0
1628540689.59375,0,0,0.0,0.0,1.0
1628540690.0625,0,0,33.681868043722936,0.0,1.0
1628540690.53125,0,0,34.64526518897293,0.0,1.0
1628540691.0,0,0,0.0,0.0,1.0
1628540691.46875,0,0,0.0,0.0,1.0
1628540691.9375,0,0,44.36747512421681,0.0,1.0
1628540692.40625,0,0,0.0,0.0,1.0
1628540692.875,0,0,44.81862031421894,0.0,1.0
1628540693.34375,0,0,42.41362573649687,0.0,1.0
1628540693.8125,0,0,40.26214450733253,0.0,1.0
1628540694.28125,0,0,36.9537035873706,0.0,1.0
1628540694.75,0,0,0.0,0.0,1.0
1628540695.21875,0,0,40.31387503292017,0.0,1.0
1628540695.6875,0,0,42.91342801165446,0.0,1.0
1628540696.15625,0,0,0.0,0.0,1.0
1628540696.625,0,0,45.40856995849082,0.0,1.0
1628540697.09375,0,0,0.0,0.0,1.0
1628540697.5625,0,0,46.57181757319703,0.0,1.0
1628540698.03125,0,0,48.49350957471946,0.0,1.0
1628540698.5,0,0,0.0,0.0,1.0
1628540698.96875,0,0,46.27936800412275,0.0,1.0
1628540699.4375,0,0,0.0,0.0,1.0
1628540699.90625,0,0,45.83522294709532,0.0,1.0
1628540700.375,0,0,0.0,0.0,1.0
1628540700.84375,0,0,46.198754356729,0.0,1.0
1628540701.3125,0,0,44.88095701905276,0.0,1.0
1628540701.78125,0,0,27.07317646221474,0.0,1.0
1628540702.25,0,0,40.425005725513785,0.0,1.0
1628540702.71875,0,0,0.0,0.0,1.0
1628540703.1875,0,0,36.37966662206287,0.0,1.0
1628540703.65625,0,0,35.31831602802237,0.0,1.0
1628540704.125,0,0,0.0,0.0,1.0
1628540704.59375,0,0,34.76908090331925,0.0,1.0
1628540705.0625,0,0,0.0,0.0,1.0
1628540705.53125,0,0,34.84189381978937,0.0,1.0
1628540706.0,0,0,30.43023536492141,0.0,1.0
1628540706.46875,0,0,22.858131361926105,0.0,1.0
1628540706.9375,0,0,26.044854673789697,0.0,1.0
1628540707.40625,0,0,18.28045183990992,0.0,1.0
1628540707.875,0,0,26.440761067158295,0.0,1.0
1628540708.34375,0,0,0.0,0.0,1.0
1628540708.8125,0,0,29.294614008044135,0.0,1.0
1628540709.28125,0,0,32.35528167264177,0.0,1.0
1628540709.75,0,0,21.376605828592076,0.0,1.0
1628540710.21875,0,0,30.937260934590498,0.0,1.0
1628540710.6875,0,0,24.397522838733316,0.0,1.0
1628540711.15625,0,0,31.631303678755987,0.0,1.0
1628540711.625,0,0,0.0,0.0,1.0
1628540712.09375,0,0,33.49076839495812,0.0,1.0
1628540712.5625,0,0,38.473157916827745,0.0,1.0
1628540713.03125,0,0,0.0,0.0,1.0
1628540713.5,0,0,39.293158525537635,0.0,1.0
1628540713.96875,0,0,0.0,0.0,1.0
1628540714.4375,0,0,38.1577230585229,0.0,1.0
1628540714.90625,0,0,36.582441304689965,0.0,1.0
1628540715.375,0,0,0.0,0.0,1.0
1628540715.84375,0,0,30.015115824974995,0.0,1.0
1628540716.3125,0,0,30.658618233641118,0.0,1.0
1628540716.78125,0,0,0.0,0.0,1.0
1628540717.25,0,0,30.317990190918266,0.0,1.0
1628540717.71875,0,0,0.0,0.0,1.0
1628540718.1875,0,0,31.10612023020483,0.0,1.0
1628540718.65625,0,0,34.6288581062705,0.0,1.0
1628540719.125,0,0,20.49406239470305,0.0,1.0
1628540719.59375,0,0,32.19175500001745,0.0,1.0
1628540720.0625,0,0,25.95827114908922,0.0,1.0
1628540720.53125,0,0,27.844775721699424,0.0,1.0
1628540721.0,0,0,0.0,0.0,1.0
1628540721.46875,0,0,32.954211801434255,0.0,1.0
1628540721.9375,0,0,0.0,0.0,1.0
1628540722.40625,0,0,34.318771553277536,0.0,1.0
1628540722.875,0,0,38.12329230054597,0.0,1.0
1628540723.34375,0,0,27.062946251014946,0.0,1.0
1628540723.8125,0,0,39.44090475297907,0.0,1.0
1628540724.28125,0,0,0.0,0.0,1.0
1628540724.75,0,0,37.37518268445405,0.0,1.0
1628540725.21875,0,0,0.0,0.0,1.0
1628540725.6875,0,0,33.28054078247872,0.0,1.0
1628540726.15625,0,0,0.0,0.0,1.0
1628540726.625,0,0,0.0,0.0,1.0
1628540727.09375,0,0,34.49137530394323,0.0,1.0
1628540727.5625,0,0,0.0,0.0,1.0
1628540728.03125,0,0,37.9535999883188,0.0,1.0
1628540728.5,0,0,38.4989010938537,0.0,1.0
1628540728.96875,0,0,25.677501903559254,0.0,1.0
1628540729.4375,0,0,38.873204480505834,0.0,1.0
1628540729.90625,0,0,30.728790732306273,0.0,1.0
1628540730.375,0,0,38.30669676974203,0.0,1.0
1628540730.84375,0,0,0.0,0.0,1.0
1628540731.3125,0,0,38.38785333014559,0.0,1.0
1628540731.78125,0,0,44.078408576818994,0.0,1.0
1628540732.25,0,0,31.94615447570595,0.0,1.0
1628540732.71875,0,0,43.42879442459043,0.0,1.0
1628540733.1875,0,0,0.0,0.0,1.0
1628540733.65625,0,0,42.51431600190573,0.0,1.0
1628540734.125,0,0,0.0,0.0,1.0
1628540734.59375,0,0,35.62633366670964,0.0,1.0
1628540735.0625,0,0,35.48887828141774,0.0,1.0
1628540735.53125,0,0,20.577412795290698,0.0,1.0
1628540736.0,0,0,36.46799000727579,0.0,1.0
1628540736.46875,0,0,17.994698841335772,0.0,1.0
1628540736.9375,0,0,37.717392079363535,0.0,1.0
1628540737.40625,0,0,0.0,0.0,1.0
1628540737.875,0,0,34.49491110517075,0.0,1.0
1628540738.34375,0,0,0.0,0.0,1.0
1628540738.8125,0,0,25.573126813346764,0.0,1.0
1628540739.28125,0,0,31.378986171132862,0.0,1.0
1628540739.75,0,0,16.194683878782527,0.0,1.0
1628540740.21875,0,0,34.76435749422655,0.0,1.0
1628540740.6875,0,0,0.0,0.0,1.0
1628540741.15625,0,0,27.841275122155178,0.0,1.0
1628540741.625,0,0,31.10107822567305,0.0,1.0
1628540742.09375,0,0,0.0,0.0,1.0
1628540742.5625,0,0,40.665323975915605,0.0,1.0
1628540743.03125,0,0,0.0,0.0,1.0
1628540743.5,0,0,37.26329911179744,0.0,1.0
1628540743.96875,0,0,37.159963863479234,0.0,1.0
1628540744.4375,0,0,11.669927893413131,0.0,1.0
1628540744.90625,0,0,38.705286493694686,0.0,1.0
1628540745.375,0,0,33.79160627392025,0.0,1.0
1628540745.84375,0,0,0.0,0.0,1.0
1628540746.3125,0,0,43.18901821472468,0.0,1.0
1628540746.78125,0,0,35.31546557690814,0.0,1.0
1628540747.25,0,0,0.0,0.0,1.0
1628540747.71875,0,0,36.89786351777103,0.0,1.0
1628540748.1875,0,0,0.0,0.0,1.0
1628540748.65625,0,0,29.527609371241212,0.0,1.0
1628540749.125,0,0,30.951691416309195,0.0,1.0
1628540749.59375,0,0,0.0,0.0,1.0
1628540750.0625,0,0,33.2006456123567,0.0,1.0
1628540750.53125,0,0,33.62421132732211,0.0,1.0
1628540751.0,0,0,15.238732328439326,0.0,1.0
1628540751.46875,0,0,34.25982221969626,0.0,1.0
1628540751.9375,0,0,30.905677023549735,0.0,1.0
1628540752.40625,0,0,5.775391633890552,0.0,1.0
1628540752.875,0,0,41.44173182540387,0.0,1.0
1628540753.34375,0,0,38.949621143176515,0.0,1.0
1628540753.8125,0,0,43.392184433994395,0.0,1.0
1628540754.28125,0,0,0.0,0.0,1.0
1628540754.75,0,0,38.221843380260566,0.0,1.0
1628540755.21875,0,0,37.94778544672074,0.0,1.0
1628540755.6875,0,0,25.173998361325243,0.0,1.0
1628540756.15625,0,0,27.170346262101898,0.0,1.0
1628540756.625,0,0,8.983168135797428,0.0,1.0
1628540757.09375,0,0,23.21450029255478,0.0,1.0
1628540757.5625,0,0,24.882465861492562,0.0,1.0
1628540758.03125,0,0,29.57093202850482,0.0,1.0
1628540758.5,0,0,0.0,0.0,1.0
1628540758.96875,0,0,36.45367805039677,0.0,1.0
1628540759.4375,0,0,26.88622455050865,0.0,1.0
1628540759.90625,0,0,20.478623891381925,0.0,1.0
1628540760.375,0,0,7.1224810303934225,0.0,1.0
1628540760.84375,0,0,14.78254427755432,0.0,1.0
1628540761.3125,0,0,0.0,0.0,1.0
1628540761.78125,0,0,12.828793418988438,0.0,1.0
1628540762.25,0,0,7.70666972551168,0.0,1.0
1628540762.71875,0,0,4.075491029991552,0.0,1.0
1628540763.1875,0,0,11.34694451757211,0.0,1.0
1628540763.65625,0,0,0.0,0.0,1.0
1628540764.125,0,0,10.721530636191067,0.0,1.0
1628540764.59375,0,0,0.0,0.0,1.0
1628540765.0625,0,0,6.30540703068797,0.0,1.0
1628540765.53125,0,0,19.38979111912092,0.0,1.0
1628540766.0,0,0,22.4678893205772,0.0,1.0
1628540766.46875,0,0,10.442168440158735,0.0,1.0
1628540766.9375,0,0,28.08440214168534,0.0,1.0
1628540767.40625,0,0,0.0,0.0,1.0
1628540767.875,0,0,28.50520051827172,0.0,1.0
1628540768.34375,0,0,0.0,0.0,1.0
1628540768.8125,0,0,25.577079561071745,0.0,1.0
1628540769.28125,0,0,0.0,0.0,1.0
1628540769.75,0,0,21.274078193568077,0.0,1.0
1628540770.21875,0,0,0.0,0.0,1.0
1628540770.6875,0,0,18.194220926225288,0.0,1.0
1628540771.15625,0,0,0.0,0.0,1.0
1628540771.625,0,0,15.286071344405084,0.0,1.0
1628540772.09375,0,0,0.0,0.0,1.0
1628540772.5625,0,0,14.36306980879281,0.0,1.0
1628540773.03125,0,0,0.0,0.0,1.0
1628540773.5,0,0,15.887785125764486,0.0,1.0
1628540773.96875,0,0,0.0,0.0,1.0
1628540774.4375,0,0,19.4527477319255,0.0,1.0
1628540774.90625,0,0,0.0,0.0,1.0
1628540775.375,0,0,31.422259089713844,0.0,1.0
1628540775.84375,0,0,22.900117939923682,0.0,1.0
1628540776.3125,0,0,27.467689853786236,0.0,1.0
1628540776.78125,0,0,26.16510132535454,0.0,1.0
1628540777.25,0,0,22.50113758316953,0.0,1.0
1628540777.71875,0,0,25.74536501412073,0.0,1.0
1628540778.1875,0,0,21.686862682738493,0.0,1.0
1628540778.65625,0,0,24.71261315124522,0.0,1.0
1628540779.125,0,0,0.0,0.0,1.0
1628540779.59375,0,0,27.663588080005205,0.0,1.0
1628540780.0625,0,0,0.0,0.0,1.0
1628540780.53125,0,0,21.02298326386945,0.0,1.0
1628540781.0,0,0,28.121594859957046,0.0,1.0
1628540781.46875,0,0,17.398956983760993,0.0,1.0
1628540781.9375,0,0,22.976349824629526,0.0,1.0
1628540782.40625,0,0,20.19022387233564,0.0,1.0
1628540782.875,0,0,22.897121779173858,0.0,1.0
1628540783.34375,0,0,0.0,0.0,1.0
1628540783.8125,0,0,22.64254503795136,0.0,1.0
1628540784.28125,0,0,0.0,0.0,1.0
1628540784.75,0,0,21.630791862948282,0.0,1.0
1628540785.21875,0,0,25.322823030842972,0.0,1.0
1628540785.6875,0,0,0.0,0.0,1.0
1628540786.15625,0,0,23.896331614570855,0.0,1.0
1628540786.625,0,0,0.0,0.0,1.0
1628540787.09375,0,0,31.619332954779836,0.0,1.0
1628540787.5625,0,0,21.89145886052681,0.0,1.0
1628540788.03125,0,0,13.102959209288569,0.0,1.0
1628540788.5,0,0,23.03386483000064,0.0,1.0
1628540788.96875,0,0,0.0,0.0,1.0
1628540789.4375,0,0,22.669270566722542,0.0,1.0
1628540789.90625,0,0,21.08406442035646,0.0,1.0
1628540790.375,0,0,17.534141672421985,0.0,1.0
1628540790.84375,0,0,21.66692489965734,0.0,1.0
1628540791.3125,0,0,0.0,0.0,1.0
1628540791.78125,0,0,20.20807429413188,0.0,1.0
1628540792.25,0,0,0.0,0.0,1.0
1628540792.71875,0,0,80.64562996000248,0.0,1.0
1628540793.1875,0,0,0.0,0.0,1.0
1628540793.65625,0,0,11.387247964472262,0.0,1.0
1628540794.125,0,0,19.821934240502095,0.0,1.0
1628540794.59375,0,0,0.0,0.0,1.0
1628540795.0625,0,0,12.633020272474758,0.0,1.0
1628540795.53125,0,0,15.821034943614126,0.0,1.0
1628540796.0,0,0,10.488859052868971,0.0,1.0
1628540796.46875,0,0,21.25397069293876,0.0,1.0
1628540796.9375,0,0,0.0,0.0,1.0
1628540797.40625,0,0,25.19041384149663,0.0,1.0
1628540797.875,0,0,17.50511021835259,0.0,1.0
1628540798.34375,0,0,0.0,0.0,1.0
1628540798.8125,0,0,161.1923213715133,0.0,1.0
1628540799.28125,0,0,41.9437888498586,0.0,1.0
1628540799.75,0,0,0.0,0.0,1.0
1628540800.21875,0,0,245.93081762543866,0.0,1.0
1628540800.6875,0,0,-44.050314468471335,0.0,1.0
1628540801.15625,0,0,11.634916724071486,0.0,1.0
1628540801.625,0,0,110.74457103763483,0.0,1.0
1628540802.09375,0,0,37.85914537293603,0.0,1.0
1628540802.5625,0,0,138.30193102583132,0.0,1.0
1628540803.03125,0,0,29.378118507953914,0.0,1.0
1628540803.5,0,0,24.696881594441603,0.0,1.0
1628540803.96875,0,0,8.250957184434238,0.0,1.0
1628540804.4375,0,0,22.63447203202453,0.0,1.0
1628540804.90625,0,0,18.72590252208979,0.0,1.0
1628540805.375,0,0,2.5096401599555267,0.0,1.0
1628540805.84375,0,0,29.771728819909708,0.0,1.0
1628540806.3125,0,0,0.0,0.0,1.0
1628540806.78125,0,0,0.0,0.0,1.0
1628540807.25,0,0,23.798284858197707,0.0,1.0
1628540807.71875,0,0,0.0,0.0,1.0
1628540808.1875,0,0,20.924099022125088,0.0,1.0
1628540808.65625,0,0,17.1807838400939,0.0,1.0
1628540809.125,0,0,4.686680556224339,0.0,1.0
1628540809.59375,0,0,23.298763641739907,0.0,1.0
1628540810.0625,0,0,16.015159635497543,0.0,1.0
1628540810.53125,0,0,5.253499762594779,0.0,1.0
1628540811.0,0,0,21.06447606442307,0.0,1.0
1628540811.46875,0,0,18.97539440518001,0.0,1.0
1628540811.9375,0,0,8.081884969481138,0.0,1.0
1628540812.40625,0,0,15.972685755922765,0.0,1.0
1628540812.875,0,0,17.337562804884275,0.0,1.0
1628540813.34375,0,0,0.0,0.0,1.0
1628540813.8125,0,0,15.010395182679312,0.0,1.0
1628540814.28125,0,0,0.0,0.0,1.0
1628540814.75,0,0,17.070547608803317,0.0,1.0
1628540815.21875,0,0,0.0,0.0,1.0
1628540815.6875,0,0,19.780979703664844,0.0,1.0
1628540816.15625,0,0,0.0,0.0,1.0
1628540816.625,0,0,18.70611167465002,0.0,1.0
1628540817.09375,0,0,0.0,0.0,1.0
1628540817.5625,0,0,13.690378243707586,0.0,1.0
1628540818.03125,0,0,18.832754238870688,0.0,1.0
1628540818.5,0,0,14.061548896419035,0.0,1.0
1628540818.96875,0,0,16.9075796869635,0.0,1.0
1628540819.4375,0,0,9.031080817712063,0.0,1.0
1628540819.90625,0,0,18.078086202789635,0.0,1.0
1628540820.375,0,0,11.629830134841832,0.0,1.0
1628540820.84375,0,0,20.525059564776967,0.0,1.0
1628540821.3125,0,0,0.0,0.0,1.0
1628540821.78125,0,0,20.96411614174707,0.0,1.0
1628540822.25,0,0,0.0,0.0,1.0
1628540822.71875,0,0,18.9686942569192,0.0,1.0
1628540823.1875,0,0,16.884409344498064,0.0,1.0
1628540823.65625,0,0,0.0,0.0,1.0
1628540824.125,0,0,20.861592928061565,0.0,1.0
1628540824.59375,0,0,21.24848073567425,0.0,1.0
1628540825.0625,0,0,0.0,0.0,1.0
1628540825.53125,0,0,22.659302342201446,0.0,1.0
1628540826.0,0,0,12.852028175411593,0.0,1.0
1628540826.46875,0,0,22.24884723201913,0.0,1.0
1628540826.9375,0,0,0.0,0.0,1.0
1628540827.40625,0,0,16.94651300898151,0.0,1.0
1628540827.875,0,0,15.57662488649331,0.0,1.0
1628540828.34375,0,0,7.836382603000599,0.0,1.0
1628540828.8125,0,0,18.602486084882493,0.0,1.0
1628540829.28125,0,0,0.0,0.0,1.0
1628540829.75,0,0,14.950183559784422,0.0,1.0
1628540830.21875,0,0,0.0,0.0,1.0
1628540830.6875,0,0,10.459078053006204,0.0,1.0
1628540831.15625,0,0,17.90171199490372,0.0,1.0
1628540831.625,0,0,8.563469942381372,0.0,1.0
1628540832.09375,0,0,17.501752816127123,0.0,1.0
1628540832.5625,0,0,11.36516176659925,0.0,1.0
1628540833.03125,0,0,19.495475562195725,0.0,1.0
1628540833.5,0,0,0.0,0.0,1.0
1628540833.96875,0,0,17.64257292827053,0.0,1.0
1628540834.4375,0,0,0.0,0.0,1.0
1628540834.90625,0,0,8.410466794974516,0.0,1.0
1628540835.375,0,0,21.734007511342487,0.0,1.0
1628540835.84375,0,0,11.962619306938437,0.0,1.0
1628540836.3125,0,0,24.04968949531702,0.0,1.0
1628540836.78125,0,0,0.0,0.0,1.0
1628540837.25,0,0,22.74187529838593,0.0,1.0
1628540837.71875,0,0,19.0831641149919,0.0,1.0
1628540838.1875,0,0,14.548886128945343,0.0,1.0
1628540838.65625,0,0,20.855983860814145,0.0,1.0
1628540839.125,0,0,13.058343093045707,0.0,1.0
1628540839.59375,0,0,25.407650124039296,0.0,1.0
1628540840.0625,0,0,0.0,0.0,1.0
1628540840.53125,0,0,23.00514713485179,0.0,1.0
1628540841.0,0,0,0.0,0.0,1.0
1628540841.46875,0,0,11.618947859591133,0.0,1.0
1628540841.9375,0,0,26.64795694992234,0.0,1.0
1628540842.40625,0,0,13.557230781153557,0.0,1.0
1628540842.875,0,0,24.37865821643145,0.0,1.0
1628540843.34375,0,0,0.0,0.0,1.0
1628540843.8125,0,0,24.16235719992404,0.0,1.0
1628540844.28125,0,0,20.969131046564367,0.0,1.0
1628540844.75,0,0,13.396558058620071,0.0,1.0
1628540845.21875,0,0,27.66853077166754,0.0,1.0
1628540845.6875,0,0,0.0,0.0,1.0
1628540846.15625,0,0,29.831138868053202,0.0,1.0
1628540846.625,0,0,27.773645292606357,0.0,1.0
1628540847.09375,0,0,0.0,0.0,1.0
1628540847.5625,0,0,28.462770277675528,0.0,1.0
1628540848.03125,0,0,0.0,0.0,1.0
1628540848.5,0,0,22.857638242072564,0.0,1.0
1628540848.96875,0,0,0.0,0.0,1.0
1628540849.4375,0,0,24.764881353906784,0.0,1.0
1628540849.90625,0,0,23.88175429309124,0.0,1.0
1628540850.375,0,0,0.0,0.0,1.0
1628540850.84375,0,0,24.302213067335618,0.0,1.0
1628540851.3125,0,0,14.047220007254342,0.0,1.0
1628540851.78125,0,0,25.665119865275383,0.0,1.0
1628540852.25,0,0,0.0,0.0,1.0
1628540852.71875,0,0,22.767457390803223,0.0,1.0
1628540853.1875,0,0,0.0,0.0,1.0
1628540853.65625,0,0,26.280142541758615,0.0,1.0
1628540854.125,0,0,0.0,0.0,1.0
1628540854.59375,0,0,22.994369320467452,0.0,1.0
1628540855.0625,0,0,22.979415405369505,0.0,1.0
1628540855.53125,0,0,0.0,0.0,1.0
1628540856.0,0,0,34.860462139095794,0.0,1.0
1628540856.46875,0,0,0.0,0.0,1.0
1628540856.9375,0,0,21.615090989314723,0.0,1.0
1628540857.40625,0,0,30.772651501147013,0.0,1.0
1628540857.875,0,0,6.587869135165527,0.0,1.0
1628540858.34375,0,0,27.909890218112253,0.0,1.0
1628540858.8125,0,0,18.453889471027466,0.0,1.0
1628540859.28125,0,0,9.509465407012552,0.0,1.0
1628540859.75,0,0,27.502857951664815,0.0,1.0
1628540860.21875,0,0,26.83116210832705,0.0,1.0
1628540860.6875,0,0,0.46056160883764063,0.0,1.0
1628540861.15625,0,0,25.761882732707818,0.0,1.0
1628540861.625,0,0,29.060646742935468,0.0,1.0
1628540862.09375,0,0,25.21855563938399,0.0,1.0
1628540862.5625,0,0,0.0,0.0,1.0
1628540863.03125,0,0,28.51589792171171,0.0,1.0
1628540863.5,0,0,33.82109245519733,0.0,1.0
1628540863.96875,0,0,26.83510167835046,0.0,1.0
1628540864.4375,0,0,10.69064794172059,0.0,1.0
1628540864.90625,0,0,28.495521539469024,0.0,1.0
1628540865.375,0,0,0.0,0.0,1.0
1628540865.84375,0,0,28.1189631038393,0.0,1.0
1628540866.3125,0,0,33.38684663505881,0.0,1.0
1628540866.78125,0,0,9.772540204741,0.0,1.0
1628540867.25,0,0,-18.290995509635582,0.0,1.0
1628540867.71875,0,0,181.39420720582766,0.0,1.0
1628540868.1875,0,0,0.0,0.0,1.0
1628540868.65625,0,0,411.93364887614206,0.0,1.0
1628540869.125,0,0,183.56918934812103,0.0,1.0
1628540869.59375,0,0,509.74135307718984,0.0,1.0
1628540870.0625,0,0,40.6339044449972,0.0,1.0
1628540870.53125,0,0,47.87821058380008,0.0,1.0
1628540871.0,0,0,202.18401656733704,0.0,1.0
1628540871.46875,0,0,0.0,0.0,1.0
1628540871.9375,0,0,441.6536044675491,0.0,1.0
1628540872.40625,0,0,292.9119846310212,0.0,1.0
1628540872.875,0,0,0.0,0.0,1.0
1628540873.34375,0,0,191.03313569966636,0.0,2.0
1628540873.8125,0,0,278.9001031885093,0.0,2.0
1628540874.28125,0,0,0.0,0.0,2.0
1628540874.75,0,0,81.81417450535783,0.0,2.0
1628540875.21875,0,0,0.9232794986127084,0.0,2.0
1628540875.6875,0,0,26.441727097509055,0.0,2.0
1628540876.15625,0,0,229.07566633506698,0.0,2.0
1628540876.625,0,0,0.0,0.0,2.0
1628540877.09375,0,0,0.0,0.0,2.0
1628540877.5625,0,0,0.0,0.0,2.0
1628540878.03125,0,0,283.93068304052696,0.0,2.0
1628540878.5,0,0,0.0,0.0,2.0
1628540878.96875,0,0,58.44283327246155,0.0,2.0
1628540879.4375,0,0,159.4682490107635,0.0,2.0
1628540879.90625,0,0,0.0,0.0,2.0
1628540880.375,0,0,48.15211880167473,0.0,2.0
1628540880.84375,0,0,33.237623553915085,0.0,2.0
1628540881.3125,0,0,0.0,0.0,2.0
1628540881.78125,0,0,55.5316808422115,0.0,2.0
1628540882.25,0,0,34.95319935111782,0.0,2.0
1628540882.71875,0,0,0.0,0.0,2.0
1628540883.1875,0,0,67.50257256339077,0.0,2.0
1628540883.65625,0,0,-16.874816950125304,0.0,2.0
1628540884.125,0,0,34.17437083638,0.0,2.0
1628540884.59375,0,0,0.0,0.0,2.0
1628540885.0625,0,0,161.99026326073061,0.0,2.0
1628540885.53125,0,0,-4.561061129116744,0.0,2.0
1628540886.0,0,0,0.0,0.0,2.0
1628540886.46875,0,0,132.8282064226675,0.0,2.0
1628540886.9375,0,0,0.0,0.0,2.0
1628540887.40625,0,0,32.76095428636157,0.0,2.0
1628540887.875,0,0,28.406820027375222,0.0,2.0
1628540888.34375,0,0,0.0,0.0,2.0
1628540888.8125,0,0,9.890637257011916,0.0,2.0
1628540889.28125,0,0,25.14530090900482,0.0,2.0
1628540889.75,0,0,0.0,0.0,2.0
1628540890.21875,0,0,26.644099907917884,0.0,2.0
1628540890.6875,0,0,30.38362162235791,0.0,2.0
1628540891.15625,0,0,0.0,0.0,2.0
1628540891.625,0,0,34.100921169024836,0.0,2.0
1628540892.09375,0,0,0.0,0.0,2.0
1628540892.5625,0,0,32.02164726432769,0.0,2.0
1628540893.03125,0,0,0.0,0.0,2.0
1628540893.5,0,0,32.260151174636604,0.0,2.0
1628540893.96875,0,0,27.564497016500994,0.0,2.0
1628540894.4375,0,0,0.0,0.0,2.0
1628540894.90625,0,0,36.801005880299655,0.0,2.0
1628540895.375,0,0,0.0,0.0,2.0
1628540895.84375,0,0,20.625418303709356,0.0,2.0
1628540896.3125,0,0,30.67605122270003,0.0,2.0
1628540896.78125,0,0,23.90316116765744,0.0,2.0
1628540897.25,0,0,31.572905263391537,0.0,2.0
1628540897.71875,0,0,27.131677181900127,0.0,2.0
1628540898.1875,0,0,34.21792730830638,0.0,2.0
1628540898.65625,0,0,29.345288841447204,0.0,2.0
1628540899.125,0,0,29.44310490700028,0.0,2.0
1628540899.59375,0,0,25.337381688301807,0.0,2.0
1628540900.0625,0,0,33.89306834417855,0.0,2.0
1628540900.53125,0,0,28.235707643843984,0.0,2.0
1628540901.0,0,0,32.07667011861316,0.0,2.0
1628540901.46875,0,0,22.924192868336497,0.0,2.0
1628540901.9375,0,0,31.242028543419494,0.0,2.0
1628540902.40625,0,0,28.979682747003768,0.0,2.0
1628540902.875,0,0,36.02650061534723,0.0,2.0
1628540903.34375,0,0,0.0,0.0,2.0
1628540903.8125,0,0,31.328522558259657,0.0,2.0
1628540904.28125,0,0,0.0,0.0,2.0
1628540904.75,0,0,105.80090739566724,0.0,2.0
1628540905.21875,0,0,156.9866736457889,0.0,2.0
1628540905.6875,0,0,-5.265634853106405,0.0,2.0
1628540906.15625,0,0,50.58284766866912,0.0,2.0
1628540906.625,0,0,49.26377431485335,0.0,2.0
1628540907.09375,0,0,23.168543490201557,0.0,2.0
1628540907.5625,0,0,21.399392000342292,0.0,2.0
1628540908.03125,0,0,33.27449651093823,0.0,2.0
1628540908.5,0,0,0.0,0.0,2.0
1628540908.96875,0,0,20.40636513024038,0.0,2.0
1628540909.4375,0,0,0.0,0.0,2.0
1628540909.90625,0,0,15.021487982493934,0.0,2.0
1628540910.375,0,0,42.44584395696644,0.0,2.0
1628540910.84375,0,0,0.0,0.0,2.0
1628540911.3125,0,0,27.872831969476955,0.0,2.0
1628540911.78125,0,0,-4.731163727051595,0.0,2.0
1628540912.25,0,0,49.906384222266,0.0,2.0
1628540912.71875,0,0,0.0,0.0,2.0
1628540913.1875,0,0,55.33216902811744,0.0,2.0
1628540913.65625,0,0,0.0,0.0,2.0
1628540914.125,0,0,48.677617590665946,0.0,2.0
1628540914.59375,0,0,41.889644071905394,0.0,2.0
1628540915.0625,0,0,0.0,0.0,2.0
1628540915.53125,0,0,145.80652761576812,0.0,2.0
1628540916.0,0,0,0.0,0.0,2.0
1628540916.46875,0,0,94.11112070145742,0.0,2.0
1628540916.9375,0,0,0.0,0.0,2.0
1628540917.40625,0,0,30.437699672767852,0.0,2.0
1628540917.875,0,0,48.736047677587116,0.0,2.0
1628540918.34375,0,0,0.0,0.0,2.0
1628540918.8125,0,0,103.02692065973693,0.0,2.0
1628540919.28125,0,0,0.0,0.0,2.0
1628540919.75,0,0,45.399396421034595,0.0,2.0
1628540920.21875,0,0,36.360494188671126,0.0,2.0
1628540920.6875,0,0,21.30914484865798,0.0,2.0
1628540921.15625,0,0,45.804251187111184,0.0,2.0
1628540921.625,0,0,0.0,0.0,2.0
1628540922.09375,0,0,23.329812510349957,0.0,2.0
1628540922.5625,0,0,70.15414337920163,0.0,2.0
1628540923.03125,0,0,35.579011506115016,0.0,2.0
1628540923.5,0,0,0.0,0.0,2.0
1628540923.96875,0,0,146.41721569412547,0.0,2.0
1628540924.4375,0,0,26.753103151314754,0.0,2.0
1628540924.90625,0,0,17.072703925911554,0.0,2.0
1628540925.375,0,0,91.28982682418105,0.0,2.0
1628540925.84375,0,0,0.0,0.0,2.0
1628540926.3125,0,0,94.86989459146453,0.0,2.0
1628540926.78125,0,0,28.919748329961273,0.0,2.0
1628540927.25,0,0,0.0,0.0,2.0
1628540927.71875,0,0,37.41554645457583,0.0,2.0
1628540928.1875,0,0,0.0,0.0,2.0
1628540928.65625,0,0,38.82294428729818,0.0,2.0
1628540929.125,0,0,33.53627513307524,0.0,2.0
1628540929.59375,0,0,27.46740692225541,0.0,2.0
1628540930.0625,0,0,34.6996396043165,0.0,2.0
1628540930.53125,0,0,0.0,0.0,2.0
1628540931.0,0,0,40.709285717948255,0.0,2.0
1628540931.46875,0,0,40.255378598620915,0.0,2.0
1628540931.9375,0,0,0.0,0.0,2.0
1628540932.40625,0,0,40.211535101868115,0.0,2.0
1628540932.875,0,0,30.74015509603367,0.0,2.0
1628540933.34375,0,0,29.929899078749983,0.0,2.0
1628540933.8125,0,0,10.558908835025782,0.0,2.0
1628540934.28125,0,0,32.31966985657427,0.0,2.0
1628540934.75,0,0,0.0,0.0,2.0
1628540935.21875,0,0,38.04412377199344,0.0,2.0
1628540935.6875,0,0,40.57796066199247,0.0,2.0
1628540936.15625,0,0,0.0,0.0,2.0
1628540936.625,0,0,43.400009218133405,0.0,2.0
1628540937.09375,0,0,0.0,0.0,2.0
1628540937.5625,0,0,42.11552985073747,0.0,2.0
1628540938.03125,0,0,42.413962295271986,0.0,2.0
1628540938.5,0,0,0.0,0.0,2.0
1628540938.96875,0,0,39.11232925326956,0.0,2.0
1628540939.4375,0,0,20.71847710745603,0.0,2.0
1628540939.90625,0,0,32.22064893770948,0.0,2.0
1628540940.375,0,0,38.495284287453,0.0,2.0
1628540940.84375,0,0,0.0,0.0,2.0
1628540941.3125,0,0,43.142116914970636,0.0,2.0
1628540941.78125,0,0,0.0,0.0,2.0
1628540942.25,0,0,0.0,0.0,2.0
1628540942.71875,0,0,44.06106662754576,0.0,2.0
1628540943.1875,0,0,33.587182570356866,0.0,2.0
1628540943.65625,0,0,44.9719952719214,0.0,2.0
1628540944.125,0,0,0.0,0.0,2.0
1628540944.59375,0,0,37.584782602708295,0.0,2.0
1628540945.0625,0,0,0.0,0.0,2.0
1628540945.53125,0,0,0.0,0.0,2.0
1628540946.0,0,0,45.59752858238941,0.0,2.0
1628540946.46875,0,0,28.506154669443532,0.0,2.0
1628540946.9375,0,0,44.37853467756857,0.0,2.0
1628540947.40625,0,0,0.0,0.0,2.0
1628540947.875,0,0,53.87580712696232,0.0,2.0
1628540948.34375,0,0,42.96815223227771,0.0,2.0
1628540948.8125,0,0,0.0,0.0,2.0
1628540949.28125,0,0,46.32803798006599,0.0,2.0
1628540949.75,0,0,55.26833022263343,0.0,2.0
1628540950.21875,0,0,0.0,0.0,2.0
1628540950.6875,0,0,57.74382645383236,0.0,2.0
1628540951.15625,0,0,0.0,0.0,2.0
1628540951.625,0,0,34.415085252299185,0.0,2.0
1628540952.09375,0,0,40.68406203600456,0.0,2.0
1628540952.5625,0,0,14.738355896857916,0.0,2.0
1628540953.03125,0,0,50.44389266927845,0.0,2.0
1628540953.5,0,0,17.157273502748506,0.0,2.0
1628540953.96875,0,0,59.973059903319104,0.0,2.0
1628540954.4375,0,0,45.449266293788234,0.0,2.0
1628540954.90625,0,0,-35.880546690238,0.0,2.0
1628540955.375,0,0,49.82382821747477,0.0,2.0
1628540955.84375,0,0,0.0,0.0,2.0
1628540956.3125,0,0,30.78055026469412,0.0,2.0
1628540956.78125,0,0,22.88412457671335,0.0,2.0
1628540957.25,0,0,18.86750352939917,0.0,2.0
1628540957.71875,0,0,38.47741808016193,0.0,2.0
1628540958.1875,0,0,0.0,0.0,2.0
1628540958.65625,0,0,43.049993575308534,0.0,2.0
1628540959.125,0,0,44.256446825424256,0.0,2.0
1628540959.59375,0,0,0.0,0.0,2.0
1628540960.0625,0,0,43.76084690085521,0.0,2.0
1628540960.53125,0,0,28.948097545066165,0.0,2.0
1628540961.0,0,0,42.50034391301524,0.0,2.0
1628540961.46875,0,0,0.0,0.0,2.0
1628540961.9375,0,0,40.093259391373785,0.0,2.0
1628540962.40625,0,0,39.056745858288096,0.0,2.0
1628540962.875,0,0,20.78713450431653,0.0,2.0
1628540963.34375,0,0,42.164177845401376,0.0,2.0
1628540963.8125,0,0,0.0,0.0,2.0
1628540964.28125,0,0,37.356945227694304,0.0,2.0
1628540964.75,0,0,38.996871253098746,0.0,2.0
1628540965.21875,0,0,0.0,0.0,2.0
1628540965.6875,0,0,41.53389736862801,0.0,2.0
1628540966.15625,0,0,41.56427469238044,0.0,2.0
1628540966.625,0,0,0.0,0.0,2.0
1628540967.09375,0,0,40.27813725189977,0.0,2.0
1628540967.5625,0,0,38.1707422425309,0.0,2.0
1628540968.03125,0,0,0.0,0.0,2.0
1628540968.5,0,0,46.405430201326496,0.0,2.0
1628540968.96875,0,0,51.57891352833566,0.0,2.0
1628540969.4375,0,0,-33.17895902428241,0.0,2.0
1628540969.90625,0,0,120.13790297455135,0.0,2.0
1628540970.375,0,0,-18.833542641374468,0.0,2.0
1628540970.84375,0,0,80.68735206731203,0.0,2.0
1628540971.3125,0,0,0.0,0.0,2.0
1628540971.78125,0,0,76.81008565168092,0.0,2.0
1628540972.25,0,0,0.0,0.0,2.0
1628540972.71875,0,0,107.0847647520575,0.0,2.0
1628540973.1875,0,0,32.042450490020904,0.0,2.0
1628540973.65625,0,0,34.20294140075266,0.0,2.0
1628540974.125,0,0,54.76716829430534,0.0,2.0
1628540974.59375,0,0,33.51000946415806,0.0,2.0
1628540975.0625,0,0,53.92252262783578,0.0,2.0
1628540975.53125,0,0,40.46005047317544,0.0,2.0
1628540976.0,0,0,53.92621689339398,0.0,2.0
1628540976.46875,0,0,43.696728996692855,0.0,2.0
1628540976.9375,0,0,57.29843226745778,0.0,2.0
1628540977.40625,0,0,0.0,0.0,2.0
1628540977.875,0,0,44.623064346769986,0.0,2.0
1628540978.34375,0,0,0.0,0.0,2.0
1628540978.8125,0,0,36.89155499375402,0.0,2.0
1628540979.28125,0,0,0.0,0.0,2.0
1628540979.75,0,0,0.0,0.0,2.0
1628540980.21875,0,0,23.701602914908545,0.0,2.0
1628540980.6875,0,0,0.0,0.0,2.0
1628540981.15625,0,0,74.9313526851511,0.0,2.0
1628540981.625,0,0,39.00881478910488,0.0,2.0
1628540982.09375,0,0,0.0,0.0,2.0
1628540982.5625,0,0,52.559433729437444,0.0,2.0
1628540983.03125,0,0,45.59058380787258,0.0,2.0
1628540983.5,0,0,0.0,0.0,2.0
1628540983.96875,0,0,51.01347365410806,0.0,2.0
1628540984.4375,0,0,47.64312393541815,0.0,2.0
1628540984.90625,0,0,0.0,0.0,2.0
1628540985.375,0,0,46.34864660953897,0.0,2.0
1628540985.84375,0,0,48.4817080590565,0.0,2.0
1628540986.3125,0,0,0.0,0.0,2.0
1628540986.78125,0,0,46.4772102765006,0.0,2.0
1628540987.25,0,0,0.0,0.0,2.0
1628540987.71875,0,0,45.713994985299365,0.0,2.0
1628540988.1875,0,0,0.0,0.0,2.0
1628540988.65625,0,0,44.850699743981394,0.0,2.0
1628540989.125,0,0,46.337052106407036,0.0,2.0
1628540989.59375,0,0,25.77349563856316,0.0,2.0
1628540990.0625,0,0,50.75654689461748,0.0,2.0
1628540990.53125,0,0,0.0,0.0,2.0
1628540991.0,0,0,52.07569306691705,0.0,2.0
1628540991.46875,0,0,0.0,0.0,2.0
1628540991.9375,0,0,54.37766351067594,0.0,2.0
1628540992.40625,0,0,49.88123556220338,0.0,2.0
1628540992.875,0,0,21.275226170818993,0.0,2.0
1628540993.34375,0,0,51.9299848396352,0.0,2.0
1628540993.8125,0,0,0.0,0.0,2.0
1628540994.28125,0,0,51.185455690073894,0.0,2.0
1628540994.75,0,0,50.67838711401795,0.0,2.0
1628540995.21875,0,0,0.0,0.0,2.0
1628540995.6875,0,0,51.45998490161972,0.0,2.0
1628540996.15625,0,0,0.0,0.0,2.0
1628540996.625,0,0,46.07509896662355,0.0,2.0
1628540997.09375,0,0,41.37690201546083,0.0,2.0
1628540997.5625,0,0,14.249029980072452,0.0,2.0
1628540998.03125,0,0,51.04162847975327,0.0,2.0
1628540998.5,0,0,0.0,0.0,2.0
1628540998.96875,0,0,0.0,0.0,2.0
1628540999.4375,0,0,55.35410885290768,0.0,2.0
1628540999.90625,0,0,39.91064651832735,0.0,2.0
1628541000.375,0,0,45.88242210775366,0.0,2.0
1628541000.84375,0,0,0.0,0.0,2.0
1628541001.3125,0,0,50.593875390338624,0.0,2.0
1628541001.78125,0,0,0.0,0.0,2.0
1628541002.25,0,0,49.53578351452939,0.0,2.0
1628541002.71875,0,0,48.332873413392655,0.0,2.0
1628541003.1875,0,0,30.075566783788627,0.0,2.0
1628541003.65625,0,0,48.51214829317521,0.0,2.0
1628541004.125,0,0,26.777395177344744,0.0,2.0
1628541004.59375,0,0,38.70863297785715,0.0,2.0
1628541005.0625,0,0,0.0,0.0,2.0
1628541005.53125,0,0,0.0,0.0,2.0
1628541006.0,0,0,51.11547461448962,0.0,2.0
1628541006.46875,0,0,0.0,0.0,2.0
1628541006.9375,0,0,51.98676219950084,0.0,2.0
1628541007.40625,0,0,46.72179411765894,0.0,2.0
1628541007.875,0,0,29.710886902281768,0.0,2.0
1628541008.34375,0,0,0.0,0.0,2.0
1628541008.8125,0,0,146.89897627662674,0.0,2.0
1628541009.28125,0,0,7.796045345266147,0.0,2.0
1628541009.75,0,0,61.08695742716685,0.0,2.0
1628541010.21875,0,0,49.75322346911792,0.0,2.0
1628541010.6875,0,0,79.12210922186121,0.0,2.0
1628541011.15625,0,0,-34.90585091965585,0.0,2.0
1628541011.625,0,0,0.0,0.0,2.0
1628541012.09375,0,0,129.60684538197972,0.0,2.0
1628541012.5625,0,0,-10.651352807950529,0.0,2.0
1628541013.03125,0,0,75.67234114774817,0.0,2.0
1628541013.5,0,0,271.76719367168425,0.0,2.0
1628541013.96875,0,0,155.23919900473675,0.0,2.0
1628541014.4375,0,0,-36.969198771073025,0.0,2.0
1628541014.90625,0,0,62.33739217897447,0.0,2.0
1628541015.375,0,0,54.076388463438974,0.0,2.0
1628541015.84375,0,0,48.56440274748738,0.0,2.0
1628541016.3125,0,0,0.0,0.0,2.0
1628541016.78125,0,0,34.67024994721588,0.0,2.0
1628541017.25,0,0,58.50764789355641,0.0,2.0
1628541017.71875,0,0,0.0,0.0,2.0
1628541018.1875,0,0,12.21806507810335,0.0,2.0
1628541018.65625,0,0,50.21719185729339,0.0,2.0
1628541019.125,0,0,94.39236335043924,0.0,2.0
1628541019.59375,0,0,0.0,0.0,2.0
1628541020.0625,0,0,75.17952065437122,0.0,2.0
1628541020.53125,0,0,55.2660016793512,0.0,2.0
1628541021.0,0,0,105.22277141481104,0.0,2.0
1628541021.46875,0,0,0.0,0.0,2.0
1628541021.9375,0,0,31.370938320277524,0.0,2.0
1628541022.40625,0,0,24.68565868592789,0.0,2.0
1628541022.875,0,0,2.9442804216772354,0.0,2.0
1628541023.34375,0,0,5.03760413212726,0.0,2.0
1628541023.8125,0,0,6.358506866259293,0.0,2.0
1628541024.28125,0,0,12.884051979720748,0.0,2.0
1628541024.75,0,0,12.325429925997424,0.0,2.0
1628541025.21875,0,0,0.5783900697412583,0.0,2.0
1628541025.6875,0,0,15.477003715477094,0.0,2.0
1628541026.15625,0,0,23.38504447341267,0.0,2.0
1628541026.625,0,0,7.471348914480272,0.0,2.0
1628541027.09375,0,0,32.59509395072559,0.0,2.0
1628541027.5625,0,0,40.163801317982696,0.0,2.0
1628541028.03125,0,0,0.0,0.0,2.0
1628541028.5,0,0,47.85792947180888,0.0,2.0
1628541028.96875,0,0,0.0,0.0,2.0
1628541029.4375,0,0,45.757686981017635,0.0,2.0
1628541029.90625,0,0,44.14787450898451,0.0,2.0
1628541030.375,0,0,15.206770847660765,0.0,2.0
1628541030.84375,0,0,40.30479666414992,0.0,2.0
1628541031.3125,0,0,43.016226956057125,0.0,2.0
1628541031.78125,0,0,0.0,0.0,2.0
1628541032.25,0,0,40.70838084764608,0.0,2.0
1628541032.71875,0,0,0.0,0.0,2.0
1628541033.1875,0,0,41.62279332485594,0.0,2.0
1628541033.65625,0,0,0.0,0.0,2.0
1628541034.125,0,0,39.381907302151824,0.0,2.0
1628541034.59375,0,0,52.95630215409746,0.0,2.0
1628541035.0625,0,0,40.9301462793908,0.0,2.0
1628541035.53125,0,0,38.826771867355724,0.0,2.0
1628541036.0,0,0,45.088488951342555,0.0,2.0
1628541036.46875,0,0,38.500384948345605,0.0,2.0
1628541036.9375,0,0,0.0,0.0,2.0
1628541037.40625,0,0,36.448868567397994,0.0,2.0
1628541037.875,0,0,0.0,0.0,2.0
1628541038.34375,0,0,41.72522136684491,0.0,2.0
1628541038.8125,0,0,0.0,0.0,2.0
1628541039.28125,0,0,41.2609835428728,0.0,2.0
1628541039.75,0,0,0.0,0.0,2.0
1628541040.21875,0,0,48.384904833105445,0.0,2.0
1628541040.6875,0,0,0.0,0.0,2.0
1628541041.15625,0,0,51.67573643674022,0.0,2.0
1628541041.625,0,0,0.0,0.0,2.0
1628541042.09375,0,0,45.175841026485905,0.0,2.0
1628541042.5625,0,0,0.0,0.0,2.0
1628541043.03125,0,0,49.29649186441716,0.0,2.0
1628541043.5,0,0,0.0,0.0,2.0
1628541043.96875,0,0,44.527598086006556,0.0,2.0
1628541044.4375,0,0,0.0,0.0,2.0
1628541044.90625,0,0,28.72700214949536,0.0,2.0
1628541045.375,0,0,50.659682846566724,0.0,2.0
1628541045.84375,0,0,40.25129500643112,0.0,2.0
1628541046.3125,0,0,61.46258372653024,0.0,2.0
1628541046.78125,0,0,44.7459562876616,0.0,2.0
1628541047.25,0,0,51.22606094573429,0.0,2.0
1628541047.71875,0,0,39.968592727202754,0.0,2.0
1628541048.1875,0,0,52.73511690530007,0.0,2.0
1628541048.65625,0,0,38.554217581026144,0.0,2.0
1628541049.125,0,0,52.259745875113374,0.0,2.0
1628541049.59375,0,0,41.94892284145089,0.0,2.0
1628541050.0625,0,0,41.35766054979479,0.0,2.0
1628541050.53125,0,0,29.44445159703429,0.0,2.0
1628541051.0,0,0,48.08821498876906,0.0,2.0
1628541051.46875,0,0,0.0,0.0,2.0
1628541051.9375,0,0,53.876657453960235,0.0,2.0
1628541052.40625,0,0,0.0,0.0,2.0
1628541052.875,0,0,42.07253705703513,0.0,2.0
1628541053.34375,0,0,0.0,0.0,2.0
1628541053.8125,0,0,72.25251250577358,0.0,2.0
1628541054.28125,0,0,0.0,0.0,2.0
1628541054.75,0,0,0.6066637889847446,0.0,2.0
1628541055.21875,0,0,437.70100712958947,0.0,3.0
1628541055.6875,0,0,-173.2556719783903,0.0,3.0
1628541056.15625,0,0,167.18599372383662,0.0,3.0
1628541056.625,0,0,44.74740986281663,0.0,3.0
1628541057.09375,0,0,408.1839994193986,0.0,3.0
1628541057.5625,0,0,-60.147901481089434,0.0,3.0
1628541058.03125,0,0,209.3640723852615,0.0,3.0
1628541058.5,0,0,0.0,0.0,3.0
1628541058.96875,0,0,38.552459572437044,0.0,3.0
1628541059.4375,0,0,57.3537572795339,0.0,3.0
1628541059.90625,0,0,65.8773243244445,0.0,3.0
1628541060.375,0,0,0.0,0.0,3.0
1628541060.84375,0,0,60.709471811838995,0.0,3.0
1628541061.3125,0,0,-19.37788776917493,0.0,3.0
1628541061.78125,0,0,35.195561388577126,0.0,3.0
1628541062.25,0,0,0.0,0.0,3.0
1628541062.71875,0,0,27.897864445258072,0.0,3.0
1628541063.1875,0,0,0.0,0.0,3.0
1628541063.65625,0,0,18.785500900396226,0.0,3.0
1628541064.125,0,0,33.54551605605181,0.0,3.0
1628541064.59375,0,0,22.07484113428242,0.0,3.0
1628541065.0625,0,0,30.18188382747473,0.0,3.0
1628541065.53125,0,0,20.55778913506215,0.0,3.0
1628541066.0,0,0,29.128473362236047,0.0,3.0
1628541066.46875,0,0,15.608015800937377,0.0,3.0
1628541066.9375,0,0,24.730305078913727,0.0,3.0
1628541067.40625,0,0,0.0,0.0,3.0
1628541067.875,0,0,21.69316610351913,0.0,3.0
1628541068.34375,0,0,0.0,0.0,3.0
1628541068.8125,0,0,21.47707924196351,0.0,3.0
1628541069.28125,0,0,20.44460829816146,0.0,3.0
1628541069.75,0,0,14.289282146727242,0.0,3.0
1628541070.21875,0,0,22.75976644031447,0.0,3.0
1628541070.6875,0,0,18.86092053045622,0.0,3.0
1628541071.15625,0,0,23.74860030583366,0.0,3.0
1628541071.625,0,0,0.0,0.0,3.0
1628541072.09375,0,0,25.033585790933248,0.0,3.0
1628541072.5625,0,0,0.0,0.0,3.0
1628541073.03125,0,0,23.00284272283631,0.0,3.0
1628541073.5,0,0,22.97802771747395,0.0,3.0
1628541073.96875,0,0,17.347547007636404,0.0,3.0
1628541074.4375,0,0,22.04537858770125,0.0,3.0
1628541074.90625,0,0,16.009069290092654,0.0,3.0
1628541075.375,0,0,22.382762607178314,0.0,3.0
1628541075.84375,0,0,0.0,0.0,3.0
1628541076.3125,0,0,24.786933861183996,0.0,3.0
1628541076.78125,0,0,0.0,0.0,3.0
1628541077.25,0,0,24.2579246977288,0.0,3.0
1628541077.71875,0,0,0.0,0.0,3.0
1628541078.1875,0,0,24.76073144526027,0.0,3.0
1628541078.65625,0,0,23.259448140883954,0.0,3.0
1628541079.125,0,0,19.155733611597054,0.0,3.0
1628541079.59375,0,0,27.271004108643186,0.0,3.0
1628541080.0625,0,0,18.301861377850248,0.0,3.0
1628541080.53125,0,0,27.705924094838505,0.0,3.0
1628541081.0,0,0,0.0,0.0,3.0
1628541081.46875,0,0,29.950795072274147,0.0,3.0
1628541081.9375,0,0,0.0,0.0,3.0
1628541082.40625,0,0,23.135323640251993,0.0,3.0
1628541082.875,0,0,31.405881344398296,0.0,3.0
1628541083.34375,0,0,27.258448765335867,0.0,3.0
1628541083.8125,0,0,20.214629058322956,0.0,3.0
1628541084.28125,0,0,0.0,0.0,3.0
1628541084.75,0,0,78.4957317603715,0.0,3.0
1628541085.21875,0,0,0.0,0.0,3.0
1628541085.6875,0,0,27.792090093203925,0.0,3.0
1628541086.15625,0,0,25.17044653663962,0.0,3.0
1628541086.625,0,0,0.0,0.0,3.0
1628541087.09375,0,0,22.514546387166988,0.0,3.0
1628541087.5625,0,0,16.032790139379607,0.0,3.0
1628541088.03125,0,0,29.95043887017105,0.0,3.0
1628541088.5,0,0,0.0,0.0,3.0
1628541088.96875,0,0,31.402711396025698,0.0,3.0
1628541089.4375,0,0,35.54962069589605,0.0,3.0
1628541089.90625,0,0,21.39501433067686,0.0,3.0
1628541090.375,0,0,33.151714097969645,0.0,3.0
1628541090.84375,0,0,23.2025359296744,0.0,3.0
1628541091.3125,0,0,26.508768134569863,0.0,3.0
1628541091.78125,0,0,0.0,0.0,3.0
1628541092.25,0,0,25.585472591907266,0.0,3.0
1628541092.71875,0,0,23.920478242044027,0.0,3.0
1628541093.1875,0,0,21.115086915754805,0.0,3.0
1628541093.65625,0,0,24.098889438105413,0.0,3.0
1628541094.125,0,0,17.993447223088406,0.0,3.0
1628541094.59375,0,0,22.224769900366745,0.0,3.0
1628541095.0625,0,0,0.0,0.0,3.0
1628541095.53125,0,0,23.410166089522885,0.0,3.0
1628541096.0,0,0,0.0,0.0,3.0
1628541096.46875,0,0,22.1150997089307,0.0,3.0
1628541096.9375,0,0,25.403403880715867,0.0,3.0
1628541097.40625,0,0,17.43872945176595,0.0,3.0
1628541097.875,0,0,27.971476080896498,0.0,3.0
1628541098.34375,0,0,0.0,0.0,3.0
1628541098.8125,0,0,29.64016520241478,0.0,3.0
1628541099.28125,0,0,0.0,0.0,3.0
1628541099.75,0,0,26.158751269600256,0.0,3.0
1628541100.21875,0,0,22.697736048424286,0.0,3.0
1628541100.6875,0,0,20.09300446229561,0.0,3.0
1628541101.15625,0,0,26.162276988556243,0.0,3.0
1628541101.625,0,0,0.0,0.0,3.0
1628541102.09375,0,0,29.07173702358842,0.0,3.0
1628541102.5625,0,0,0.0,0.0,3.0
1628541103.03125,0,0,28.707363693514594,0.0,3.0
1628541103.5,0,0,30.109654354797403,0.0,3.0
1628541103.96875,0,0,27.37479967160909,0.0,3.0
1628541104.4375,0,0,25.680209300095044,0.0,3.0
1628541104.90625,0,0,24.484478388678898,0.0,3.0
1628541105.375,0,0,29.570497952797314,0.0,3.0
1628541105.84375,0,0,0.0,0.0,3.0
1628541106.3125,0,0,29.874223076683563,0.0,3.0
1628541106.78125,0,0,0.0,0.0,3.0
1628541107.25,0,0,26.328912604020456,0.0,3.0
1628541107.71875,0,0,31.89706824714352,0.0,3.0
1628541108.1875,0,0,24.06656643084456,0.0,3.0
1628541108.65625,0,0,33.84998300363908,0.0,3.0
1628541109.125,0,0,0.0,0.0,3.0
1628541109.59375,0,0,29.157394809789654,0.0,3.0
1628541110.0625,0,0,0.0,0.0,3.0
1628541110.53125,0,0,30.441888792552707,0.0,3.0
1628541111.0,0,0,31.566983972410796,0.0,3.0
1628541111.46875,0,0,21.681025397497258,0.0,3.0
1628541111.9375,0,0,34.1483533358775,0.0,3.0
1628541112.40625,0,0,0.0,0.0,3.0
1628541112.875,0,0,32.32440861770046,0.0,3.0
1628541113.34375,0,0,0.0,0.0,3.0
1628541113.8125,0,0,36.615068298522026,0.0,3.0
1628541114.28125,0,0,0.0,0.0,3.0
1628541114.75,0,0,27.511425173285883,0.0,3.0
1628541115.21875,0,0,29.28755828253747,0.0,3.0
1628541115.6875,0,0,23.496901840458463,0.0,3.0
1628541116.15625,0,0,29.001055644680378,0.0,3.0
1628541116.625,0,0,0.0,0.0,3.0
1628541117.09375,0,0,34.057407855259214,0.0,3.0
1628541117.5625,0,0,0.0,0.0,3.0
1628541118.03125,0,0,30.408960315873113,0.0,3.0
1628541118.5,0,0,0.0,0.0,3.0
1628541118.96875,0,0,48.913587818133976,0.0,3.0
1628541119.4375,0,0,8.252056926867471,0.0,3.0
1628541119.90625,0,0,36.79398613943654,0.0,3.0
1628541120.375,0,0,31.668838272831483,0.0,3.0
1628541120.84375,0,0,23.968045002529035,0.0,3.0
1628541121.3125,0,0,28.05223370589693,0.0,3.0
1628541121.78125,0,0,0.0,0.0,3.0
1628541122.25,0,0,31.057219496209512,0.0,3.0
1628541122.71875,0,0,33.23819146876531,0.0,3.0
1628541123.1875,0,0,0.0,0.0,3.0
1628541123.65625,0,0,30.804171550518397,0.0,3.0
1628541124.125,0,0,30.243827379984708,0.0,3.0
1628541124.59375,0,0,16.690176212028227,0.0,3.0
1628541125.0625,0,0,30.1737959596338,0.0,3.0
1628541125.53125,0,0,27.489052627955687,0.0,3.0
1628541126.0,0,0,14.38470939662441,0.0,3.0
1628541126.46875,0,0,28.606490133881984,0.0,3.0
1628541126.9375,0,0,27.99954448765396,0.0,3.0
1628541127.40625,0,0,11.11226857922509,0.0,3.0
1628541127.875,0,0,30.573464729176262,0.0,3.0
1628541128.34375,0,0,29.992393923923395,0.0,3.0
1628541128.8125,0,0,0.0,0.0,3.0
1628541129.28125,0,0,28.463103188800048,0.0,3.0
1628541129.75,0,0,0.0,0.0,3.0
1628541130.21875,0,0,26.080857130339588,0.0,3.0
1628541130.6875,0,0,30.784138495559624,0.0,3.0
1628541131.15625,0,0,19.863790418929284,0.0,3.0
1628541131.625,0,0,32.031963889561396,0.0,3.0
1628541132.09375,0,0,0.0,0.0,3.0
1628541132.5625,0,0,32.64332526016783,0.0,3.0
1628541133.03125,0,0,0.0,0.0,3.0
1628541133.5,0,0,32.70155086449651,0.0,3.0
1628541133.96875,0,0,29.994790358485837,0.0,3.0
1628541134.4375,0,0,23.34323754961803,0.0,3.0
1628541134.90625,0,0,32.430877706906756,0.0,3.0
1628541135.375,0,0,19.779649198592438,0.0,3.0
1628541135.84375,0,0,34.17090611338286,0.0,3.0
1628541136.3125,0,0,0.0,0.0,3.0
1628541136.78125,0,0,30.49423289685907,0.0,3.0
1628541137.25,0,0,29.852549280038833,0.0,3.0
1628541137.71875,0,0,21.06581513382879,0.0,3.0
1628541138.1875,0,0,27.449906330440506,0.0,3.0
1628541138.65625,0,0,22.61793911627194,0.0,3.0
1628541139.125,0,0,27.391389241787685,0.0,3.0
1628541139.59375,0,0,0.0,0.0,3.0
1628541140.0625,0,0,23.944263295858548,0.0,3.0
1628541140.53125,0,0,0.0,0.0,3.0
1628541141.0,0,0,0.0,0.0,3.0
1628541141.46875,0,0,27.555849425842904,0.0,3.0
1628541141.9375,0,0,22.905762684830105,0.0,3.0
1628541142.40625,0,0,30.23894489064521,0.0,3.0
1628541142.875,0,0,0.0,0.0,3.0
1628541143.34375,0,0,29.693766078697152,0.0,3.0
1628541143.8125,0,0,0.0,0.0,3.0
1628541144.28125,0,0,24.451482643293854,0.0,3.0
1628541144.75,0,0,30.553776358623633,0.0,3.0
1628541145.21875,0,0,21.364134958006353,0.0,3.0
1628541145.6875,0,0,31.772235721035706,0.0,3.0
1628541146.15625,0,0,0.0,0.0,3.0
1628541146.625,0,0,32.0310828466299,0.0,3.0
1628541147.09375,0,0,0.0,0.0,3.0
1628541147.5625,0,0,25.463157468620462,0.0,3.0
1628541148.03125,0,0,30.321226984458562,0.0,3.0
1628541148.5,0,0,23.446990506514503,0.0,3.0
1628541148.96875,0,0,30.421731592476647,0.0,3.0
1628541149.4375,0,0,0.0,0.0,3.0
1628541149.90625,0,0,34.93569344136027,0.0,3.0
1628541150.375,0,0,27.840005444350805,0.0,3.0
1628541150.84375,0,0,21.15254791813482,0.0,3.0
1628541151.3125,0,0,30.150205013776603,0.0,3.0
1628541151.78125,0,0,15.799123015843922,0.0,3.0
1628541152.25,0,0,34.71211398129609,0.0,3.0
1628541152.71875,0,0,34.903014446155495,0.0,3.0
1628541153.1875,0,0,0.0,0.0,3.0
1628541153.65625,0,0,35.554850817361796,0.0,3.0
1628541154.125,0,0,0.0,0.0,3.0
1628541154.59375,0,0,31.728934386059056,0.0,3.0
1628541155.0625,0,0,32.43673510997192,0.0,3.0
1628541155.53125,0,0,24.262257036064323,0.0,3.0
1628541156.0,0,0,28.243203592954245,0.0,3.0
1628541156.46875,0,0,0.0,0.0,3.0
1628541156.9375,0,0,24.803191985362666,0.0,3.0
1628541157.40625,0,0,0.0,0.0,3.0
1628541157.875,0,0,19.81719444779837,0.0,3.0
1628541158.34375,0,0,0.0,0.0,3.0
1628541158.8125,0,0,21.975549182082567,0.0,3.0
1628541159.28125,0,0,23.917023009356345,0.0,3.0
1628541159.75,0,0,20.032537326731813,0.0,3.0
1628541160.21875,0,0,25.756653441061985,0.0,3.0
1628541160.6875,0,0,0.0,0.0,3.0
1628541161.15625,0,0,26.641027849337046,0.0,3.0
1628541161.625,0,0,0.0,0.0,3.0
1628541162.09375,0,0,25.87392279882002,0.0,3.0
1628541162.5625,0,0,27.006282800629926,0.0,3.0
1628541163.03125,0,0,16.69850076509076,0.0,3.0
1628541163.5,0,0,27.882080424668057,0.0,3.0
1628541163.96875,0,0,0.0,0.0,3.0
1628541164.4375,0,0,21.987407371373546,0.0,3.0
1628541164.90625,0,0,27.934154189183737,0.0,3.0
1628541165.375,0,0,22.54687062713299,0.0,3.0
1628541165.84375,0,0,29.133272762370968,0.0,3.0
1628541166.3125,0,0,0.0,0.0,3.0
1628541166.78125,0,0,23.906498096228773,0.0,3.0
1628541167.25,0,0,29.863683296431535,0.0,3.0
1628541167.71875,0,0,0.0,0.0,3.0
1628541168.1875,0,0,30.373296363646993,0.0,3.0
1628541168.65625,0,0,0.0,0.0,3.0
1628541169.125,0,0,30.810023486462267,0.0,3.0
1628541169.59375,0,0,31.61261135848784,0.0,3.0
1628541170.0625,0,0,26.951878405601477,0.0,3.0
1628541170.53125,0,0,29.17183090896292,0.0,3.0
1628541171.0,0,0,21.57442354474767,0.0,3.0
1628541171.46875,0,0,27.894614393234296,0.0,3.0
1628541171.9375,0,0,0.0,0.0,3.0
1628541172.40625,0,0,31.347882925886754,0.0,3.0
1628541172.875,0,0,28.252528590877617,0.0,3.0
1628541173.34375,0,0,24.562758586799447,0.0,3.0
1628541173.8125,0,0,32.49146167701466,0.0,3.0
1628541174.28125,0,0,27.42212985184976,0.0,3.0
1628541174.75,0,0,21.845301811349636,0.0,3.0
1628541175.21875,0,0,0.0,0.0,3.0
1628541175.6875,0,0,32.0864590729468,0.0,3.0
1628541176.15625,0,0,28.416763540218597,0.0,3.0
1628541176.625,0,0,20.939559664616123,0.0,3.0
1628541177.09375,0,0,28.809704335415386,0.0,3.0
1628541177.5625,0,0,0.0,0.0,3.0
1628541178.03125,0,0,28.976370946415503,0.0,3.0
1628541178.5,0,0,29.34028973865114,0.0,3.0
1628541178.96875,0,0,23.528450066516452,0.0,3.0
1628541179.4375,0,0,32.647594626782514,0.0,3.0
1628541179.90625,0,0,22.292170128133897,0.0,3.0
1628541180.375,0,0,25.400907043930832,0.0,3.0
1628541180.84375,0,0,0.0,0.0,3.0
1628541181.3125,0,0,3.471641827864521,0.0,3.0
1628541181.78125,0,0,43.266102527993,0.0,3.0
1628541182.25,0,0,0.0,0.0,3.0
1628541182.71875,0,0,21.484585439442764,0.0,3.0
1628541183.1875,0,0,0.0,0.0,3.0
1628541183.65625,0,0,39.24222093186104,0.0,3.0
1628541184.125,0,0,0.0,0.0,3.0
1628541184.59375,0,0,31.747187810898144,0.0,3.0
1628541185.0625,0,0,33.1863775359349,0.0,3.0
1628541185.53125,0,0,26.203874721762787,0.0,3.0
1628541186.0,0,0,21.288475066710273,0.0,3.0
1628541186.46875,0,0,21.990213694384437,0.0,3.0
1628541186.9375,0,0,28.330576919942846,0.0,3.0
1628541187.40625,0,0,0.0,0.0,3.0
1628541187.875,0,0,28.788127682086333,0.0,3.0
1628541188.34375,0,0,0.0,0.0,3.0
1628541188.8125,0,0,26.861249925092896,0.0,3.0
1628541189.28125,0,0,29.786497000143004,0.0,3.0
1628541189.75,0,0,20.677065378517245,0.0,3.0
1628541190.21875,0,0,31.758679619856128,0.0,3.0
1628541190.6875,0,0,21.609704801083055,0.0,3.0
1628541191.15625,0,0,32.320180418573834,0.0,3.0
1628541191.625,0,0,0.0,0.0,3.0
1628541192.09375,0,0,34.13821817721225,0.0,3.0
1628541192.5625,0,0,29.91509907119729,0.0,3.0
1628541193.03125,0,0,23.60984917868966,0.0,3.0
1628541193.5,0,0,31.942642663135043,0.0,3.0
1628541193.96875,0,0,21.630832356338477,0.0,3.0
1628541194.4375,0,0,29.184283469140944,0.0,3.0
1628541194.90625,0,0,0.0,0.0,3.0
1628541195.375,0,0,29.1462215584719,0.0,3.0
1628541195.84375,0,0,0.0,0.0,3.0
1628541196.3125,0,0,27.916850949124807,0.0,3.0
1628541196.78125,0,0,29.98827334178868,0.0,3.0
1628541197.25,0,0,21.397280593856017,0.0,3.0
1628541197.71875,0,0,29.903211031451313,0.0,3.0
1628541198.1875,0,0,0.0,0.0,3.0
1628541198.65625,0,0,31.688684971151993,0.0,3.0
1628541199.125,0,0,0.0,0.0,3.0
1628541199.59375,0,0,20.297825503973197,0.0,3.0
1628541200.0625,0,0,28.18995444617995,0.0,3.0
1628541200.53125,0,0,18.983769766441785,0.0,3.0
1628541201.0,0,0,31.94789106861481,0.0,3.0
1628541201.46875,0,0,0.0,0.0,3.0
1628541201.9375,0,0,33.40513026261196,0.0,3.0
1628541202.40625,0,0,30.73431045090249,0.0,3.0
1628541202.875,0,0,28.217434412108567,0.0,3.0
1628541203.34375,0,0,28.947135677553042,0.0,3.0
1628541203.8125,0,0,0.0,0.0,3.0
1628541204.28125,0,0,28.4853461473784,0.0,3.0
1628541204.75,0,0,28.498064905675264,0.0,3.0
1628541205.21875,0,0,18.11066249360692,0.0,3.0
1628541205.6875,0,0,28.900287116862025,0.0,3.0
1628541206.15625,0,0,0.0,0.0,3.0
1628541206.625,0,0,28.153345314080305,0.0,3.0
1628541207.09375,0,0,0.0,0.0,3.0
1628541207.5625,0,0,29.024912586050974,0.0,3.0
1628541208.03125,0,0,31.553942195852237,0.0,3.0
1628541208.5,0,0,17.349983372908877,0.0,3.0
1628541208.96875,0,0,33.00598412190728,0.0,3.0
1628541209.4375,0,0,0.0,0.0,3.0
1628541209.90625,0,0,24.66917451598121,0.0,3.0
