timestamp,mean_pulse_rate,pulse_rate_std,mean_pulse_amplitude,pulse_amplitude_std,block
1635633704.9375,0,0,0.0,0.0,1.0
1635633705.40625,0,0,12.013809184976163,0.0,1.0
1635633705.875,0,0,0.0,0.0,1.0
1635633706.34375,0,0,29.450822277870856,0.0,1.0
1635633706.8125,0,0,11.06085473561569,0.0,1.0
1635633707.28125,0,0,0.0,0.0,1.0
1635633707.75,0,0,0.0,0.0,1.0
1635633708.21875,0,0,21.16162912989487,0.0,1.0
1635633708.6875,0,0,24.92079817002599,0.0,1.0
1635633709.15625,0,0,0.0,0.0,1.0
1635633709.625,0,0,135.74267853611659,0.0,1.0
1635633710.09375,0,0,41.358305940779395,0.0,1.0
1635633710.5625,0,0,-14.032313581882002,0.0,1.0
1635633711.03125,0,0,45.825223634510586,0.0,1.0
1635633711.5,0,0,-4.92413186529159,0.0,1.0
1635633711.96875,0,0,0.0,0.0,1.0
1635633712.4375,0,0,192.63178014762718,0.0,1.0
1635633712.90625,0,0,0.0,0.0,1.0
1635633713.375,0,0,269.3093282159478,0.0,1.0
1635633713.84375,0,0,-38.287927796069596,0.0,1.0
1635633714.3125,0,0,40.91825948864718,0.0,1.0
1635633714.78125,0,0,19.236882642986437,0.0,1.0
1635633715.25,0,0,54.23695651990505,0.0,1.0
1635633715.71875,0,0,0.0,0.0,1.0
1635633716.1875,0,0,14.129173747227501,0.0,1.0
1635633716.65625,0,0,19.161344519393573,0.0,1.0
1635633717.125,0,0,0.0,0.0,1.0
1635633717.59375,0,0,0.0,0.0,1.0
1635633718.0625,0,0,4.495997735917379,0.0,1.0
1635633718.53125,0,0,20.497309773738404,0.0,1.0
1635633719.0,0,0,14.260979501755314,0.0,1.0
1635633719.46875,0,0,0.0,0.0,1.0
1635633719.9375,0,0,8.718029078771147,0.0,1.0
1635633720.40625,0,0,28.6606395111079,0.0,1.0
1635633720.875,0,0,0.0,0.0,1.0
1635633721.34375,0,0,2.6253521386090184,0.0,1.0
1635633721.8125,0,0,18.965382235465945,0.0,1.0
1635633722.28125,0,0,16.77263344979678,0.0,1.0
1635633722.75,0,0,0.0,0.0,1.0
1635633723.21875,0,0,27.508675156651947,0.0,1.0
1635633723.6875,0,0,2.8926305068785974,0.0,1.0
1635633724.15625,0,0,10.960023533869524,0.0,1.0
1635633724.625,0,0,0.0,0.0,1.0
1635633725.09375,0,0,20.25340226596562,0.0,1.0
1635633725.5625,0,0,0.0,0.0,1.0
1635633726.03125,0,0,6.532269928830451,0.0,1.0
1635633726.5,0,0,15.671962041687788,0.0,1.0
1635633726.96875,0,0,0.0,0.0,1.0
1635633727.4375,0,0,22.67211830355391,0.0,1.0
1635633727.90625,0,0,7.733467298112118,0.0,1.0
1635633728.375,0,0,0.0,0.0,1.0
1635633728.84375,0,0,73.085221842295,0.0,1.0
1635633729.3125,0,0,0.0,0.0,1.0
1635633729.78125,0,0,36.449509058908596,0.0,1.0
1635633730.25,0,0,29.63182040259682,0.0,1.0
1635633730.71875,0,0,11.103915076202732,0.0,1.0
1635633731.1875,0,0,0.0,0.0,1.0
1635633731.65625,0,0,22.48722029481326,0.0,1.0
1635633732.125,0,0,9.614440777547458,0.0,1.0
1635633732.59375,0,0,0.0,0.0,1.0
1635633733.0625,0,0,0.0,0.0,1.0
1635633733.53125,0,0,-2.611605753993717,0.0,1.0
1635633734.0,0,0,21.357315617433255,0.0,1.0
1635633734.46875,0,0,0.0,0.0,1.0
1635633734.9375,0,0,0.0,0.0,1.0
1635633735.40625,0,0,22.336524339535107,0.0,1.0
1635633735.875,0,0,8.88757269130462,0.0,1.0
1635633736.34375,0,0,13.167279896126711,0.0,1.0
1635633736.8125,0,0,0.0,0.0,1.0
1635633737.28125,0,0,19.46636164649795,0.0,1.0
1635633737.75,0,0,18.2534373508717,0.0,1.0
1635633738.21875,0,0,0.0,0.0,1.0
1635633738.6875,0,0,9.549780439455608,0.0,1.0
1635633739.15625,0,0,9.70862139224766,0.0,1.0
1635633739.625,0,0,9.516323421440042,0.0,1.0
1635633740.09375,0,0,0.0,0.0,1.0
1635633740.5625,0,0,0.0,0.0,1.0
1635633741.03125,0,0,14.371080036893876,0.0,1.0
1635633741.5,0,0,9.313887757637179,0.0,1.0
1635633741.96875,0,0,0.0,0.0,1.0
1635633742.4375,0,0,22.88444214273369,0.0,1.0
1635633742.90625,0,0,7.695101623920601,0.0,1.0
1635633743.375,0,0,0.0,0.0,1.0
1635633743.84375,0,0,10.489234025026166,0.0,1.0
1635633744.3125,0,0,19.38453303150052,0.0,1.0
1635633744.78125,0,0,0.0,0.0,1.0
1635633745.25,0,0,0.0,0.0,1.0
1635633745.71875,0,0,12.315546703808671,0.0,1.0
1635633746.1875,0,0,13.485401083059838,0.0,1.0
1635633746.65625,0,0,0.0,0.0,1.0
1635633747.125,0,0,0.0,0.0,1.0
1635633747.59375,0,0,21.35323175150349,0.0,1.0
1635633748.0625,0,0,15.336079512714143,0.0,1.0
1635633748.53125,0,0,0.0,0.0,1.0
1635633749.0,0,0,10.252421354485696,0.0,1.0
1635633749.46875,0,0,23.372628998022638,0.0,1.0
1635633749.9375,0,0,22.73200874136138,0.0,1.0
1635633750.40625,0,0,0.0,0.0,1.0
1635633750.875,0,0,18.099287768244206,0.0,1.0
1635633751.34375,0,0,16.841787624880542,0.0,1.0
1635633751.8125,0,0,0.0,0.0,1.0
1635633752.28125,0,0,0.0,0.0,1.0
1635633752.75,0,0,23.731353820918862,0.0,1.0
1635633753.21875,0,0,0.0,0.0,1.0
1635633753.6875,0,0,7.669948065680461,0.0,1.0
1635633754.15625,0,0,13.729539306059161,0.0,1.0
1635633754.625,0,0,22.61825566303737,0.0,1.0
1635633755.09375,0,0,18.493247856259178,0.0,1.0
1635633755.5625,0,0,0.0,0.0,1.0
1635633756.03125,0,0,16.73452848572429,0.0,1.0
1635633756.5,0,0,6.99439484353786,0.0,1.0
1635633756.96875,0,0,22.12027496993443,0.0,1.0
1635633757.4375,0,0,0.0,0.0,1.0
1635633757.90625,0,0,15.890402922535534,0.0,1.0
1635633758.375,0,0,18.988648978223967,0.0,1.0
1635633758.84375,0,0,0.0,0.0,1.0
1635633759.3125,0,0,8.588992597960258,0.0,1.0
1635633759.78125,0,0,17.125889473997805,0.0,1.0
1635633760.25,0,0,0.0,0.0,1.0
1635633760.71875,0,0,0.0,0.0,1.0
1635633761.1875,0,0,22.573693903305617,0.0,1.0
1635633761.65625,0,0,8.399808236844889,0.0,1.0
1635633762.125,0,0,0.0,0.0,1.0
1635633762.59375,0,0,8.420533594865045,0.0,1.0
1635633763.0625,0,0,14.282028086066791,0.0,1.0
1635633763.53125,0,0,0.0,0.0,1.0
1635633764.0,0,0,24.269907995264397,0.0,1.0
1635633764.46875,0,0,6.602446158718557,0.0,1.0
1635633764.9375,0,0,0.0,0.0,1.0
1635633765.40625,0,0,0.0,0.0,1.0
1635633765.875,0,0,15.96394660544113,0.0,1.0
1635633766.34375,0,0,0.0,0.0,1.0
1635633766.8125,0,0,22.438092691420124,0.0,1.0
1635633767.28125,0,0,10.008742046735108,0.0,1.0
1635633767.75,0,0,0.0,0.0,1.0
1635633768.21875,0,0,14.01333109596892,0.0,1.0
1635633768.6875,0,0,15.980156783887969,0.0,1.0
1635633769.15625,0,0,0.0,0.0,1.0
1635633769.625,0,0,21.874681401141206,0.0,1.0
1635633770.09375,0,0,14.96793820303177,0.0,1.0
1635633770.5625,0,0,17.452297119197183,0.0,1.0
1635633771.03125,0,0,0.0,0.0,1.0
1635633771.5,0,0,22.018317400712714,0.0,1.0
1635633771.96875,0,0,21.241029356134213,0.0,1.0
1635633772.4375,0,0,0.0,0.0,1.0
1635633772.90625,0,0,12.012455579632682,0.0,1.0
1635633773.375,0,0,23.89879000994683,0.0,1.0
1635633773.84375,0,0,0.0,0.0,1.0
1635633774.3125,0,0,18.99361914326043,0.0,1.0
1635633774.78125,0,0,9.131263336423208,0.0,1.0
1635633775.25,0,0,0.0,0.0,1.0
1635633775.71875,0,0,0.0,0.0,1.0
1635633776.1875,0,0,24.13959960248265,0.0,1.0
1635633776.65625,0,0,0.0,0.0,1.0
1635633777.125,0,0,0.0,0.0,1.0
1635633777.59375,0,0,133.85567828056531,0.0,1.0
1635633778.0625,0,0,104.31261601455064,0.0,1.0
1635633778.53125,0,0,0.0,0.0,1.0
1635633779.0,0,0,0.0,0.0,1.0
1635633779.46875,0,0,15.120299038717317,0.0,1.0
1635633779.9375,0,0,52.51702187255383,0.0,1.0
1635633780.40625,0,0,15.347771817771415,0.0,1.0
1635633780.875,0,0,16.29453137854689,0.0,1.0
1635633781.34375,0,0,0.0,0.0,1.0
1635633781.8125,0,0,24.976093446496957,0.0,1.0
1635633782.28125,0,0,10.839282959104086,0.0,1.0
1635633782.75,0,0,8.882637548368848,0.0,1.0
1635633783.21875,0,0,8.076006235921028,0.0,1.0
1635633783.6875,0,0,0.0,0.0,1.0
1635633784.15625,0,0,22.36640932082244,0.0,1.0
1635633784.625,0,0,15.165078553145776,0.0,1.0
1635633785.09375,0,0,0.0,0.0,1.0
1635633785.5625,0,0,4.060986113522933,0.0,1.0
1635633786.03125,0,0,16.94211228440757,0.0,1.0
1635633786.5,0,0,0.0,0.0,1.0
1635633786.96875,0,0,0.0,0.0,1.0
1635633787.4375,0,0,6.169757105143584,0.0,1.0
1635633787.90625,0,0,17.852981857169738,0.0,1.0
1635633788.375,0,0,0.0,0.0,1.0
1635633788.84375,0,0,16.47809812580329,0.0,1.0
1635633789.3125,0,0,0.0,0.0,1.0
1635633789.78125,0,0,10.062786486853227,0.0,1.0
1635633790.25,0,0,60.965814641811356,0.0,1.0
1635633790.71875,0,0,0.0,0.0,1.0
1635633791.1875,0,0,0.5869481402618498,0.0,1.0
1635633791.65625,0,0,48.49397303512403,0.0,1.0
1635633792.125,0,0,16.705527797133918,0.0,1.0
1635633792.59375,0,0,0.0,0.0,1.0
1635633793.0625,0,0,19.963309151698727,0.0,1.0
1635633793.53125,0,0,36.983751296769256,0.0,1.0
1635633794.0,0,0,29.22041081130389,0.0,1.0
1635633794.46875,0,0,0.0,0.0,1.0
1635633794.9375,0,0,31.49783352843752,0.0,1.0
1635633795.40625,0,0,15.17123832321949,0.0,1.0
1635633795.875,0,0,0.0,0.0,1.0
1635633796.34375,0,0,0.0,0.0,1.0
1635633796.8125,0,0,31.17180448302745,0.0,1.0
1635633797.28125,0,0,14.863799528115479,0.0,1.0
1635633797.75,0,0,0.0,0.0,1.0
1635633798.21875,0,0,27.56590650332394,0.0,1.0
1635633798.6875,0,0,20.573149728999542,0.0,1.0
1635633799.15625,0,0,0.0,0.0,1.0
1635633799.625,0,0,21.887474738148573,0.0,1.0
1635633800.09375,0,0,11.37473768432575,0.0,1.0
1635633800.5625,0,0,15.505534054563377,0.0,1.0
1635633801.03125,0,0,0.0,0.0,1.0
1635633801.5,0,0,26.43608276407614,0.0,1.0
1635633801.96875,0,0,14.667097746656935,0.0,1.0
1635633802.4375,0,0,0.0,0.0,1.0
1635633802.90625,0,0,0.0,0.0,1.0
1635633803.375,0,0,23.875927812860642,0.0,1.0
1635633803.84375,0,0,12.587861923853398,0.0,1.0
1635633804.3125,0,0,0.0,0.0,1.0
1635633804.78125,0,0,14.7637908329534,0.0,1.0
1635633805.25,0,0,16.830528607989756,0.0,1.0
1635633805.71875,0,0,0.0,0.0,1.0
1635633806.1875,0,0,21.57012553565792,0.0,1.0
1635633806.65625,0,0,22.78923033370648,0.0,1.0
1635633807.125,0,0,0.0,0.0,1.0
1635633807.59375,0,0,0.0,0.0,1.0
1635633808.0625,0,0,20.38147496009881,0.0,1.0
1635633808.53125,0,0,32.004965561922965,0.0,1.0
1635633809.0,0,0,0.0,0.0,1.0
1635633809.46875,0,0,8.826201491701942,0.0,1.0
1635633809.9375,0,0,22.19146239934542,0.0,1.0
1635633810.40625,0,0,13.874937529935856,0.0,1.0
1635633810.875,0,0,0.0,0.0,1.0
1635633811.34375,0,0,27.577539758487678,0.0,1.0
1635633811.8125,0,0,22.160176420380164,0.0,1.0
1635633812.28125,0,0,0.0,0.0,1.0
1635633812.75,0,0,3.1517590507856057,0.0,1.0
1635633813.21875,0,0,29.418388094429194,0.0,1.0
1635633813.6875,0,0,0.0,0.0,1.0
1635633814.15625,0,0,23.87817930777665,0.0,1.0
1635633814.625,0,0,5.015666384110117,0.0,1.0
1635633815.09375,0,0,24.589151195680063,0.0,1.0
1635633815.5625,0,0,18.75544128356004,0.0,1.0
1635633816.03125,0,0,0.0,0.0,1.0
1635633816.5,0,0,26.38654276856399,0.0,1.0
1635633816.96875,0,0,0.0,0.0,1.0
1635633817.4375,0,0,0.0,0.0,1.0
1635633817.90625,0,0,15.90705524886962,0.0,1.0
1635633818.375,0,0,9.297998513749233,0.0,1.0
1635633818.84375,0,0,0.0,0.0,1.0
1635633819.3125,0,0,28.62517862673066,0.0,1.0
1635633819.78125,0,0,12.277858401118076,0.0,1.0
1635633820.25,0,0,0.0,0.0,1.0
1635633820.71875,0,0,18.98843645703985,0.0,1.0
1635633821.1875,0,0,29.011728898599085,0.0,1.0
1635633821.65625,0,0,0.0,0.0,1.0
1635633822.125,0,0,15.277822859304425,0.0,1.0
1635633822.59375,0,0,26.90755309684376,0.0,1.0
1635633823.0625,0,0,17.60654524191951,0.0,1.0
1635633823.53125,0,0,0.0,0.0,1.0
1635633824.0,0,0,13.785420889576669,0.0,1.0
1635633824.46875,0,0,17.490609179644764,0.0,1.0
1635633824.9375,0,0,23.23380585735991,0.0,1.0
1635633825.40625,0,0,0.0,0.0,1.0
1635633825.875,0,0,12.1764425598928,0.0,1.0
1635633826.34375,0,0,17.256841146306247,0.0,1.0
1635633826.8125,0,0,18.16638206889402,0.0,1.0
1635633827.28125,0,0,0.0,0.0,1.0
1635633827.75,0,0,16.16680645061092,0.0,1.0
1635633828.21875,0,0,14.735473628859701,0.0,1.0
1635633828.6875,0,0,0.0,0.0,1.0
1635633829.15625,0,0,16.452928128899988,0.0,1.0
1635633829.625,0,0,17.871787124948003,0.0,1.0
1635633830.09375,0,0,7.0564755343112475,0.0,1.0
1635633830.5625,0,0,0.0,0.0,1.0
1635633831.03125,0,0,12.978329002992073,0.0,1.0
1635633831.5,0,0,17.249248126695182,0.0,1.0
1635633831.96875,0,0,14.02109621517802,0.0,1.0
1635633832.4375,0,0,0.0,0.0,1.0
1635633832.90625,0,0,15.499405635026234,0.0,1.0
1635633833.375,0,0,13.813000494374052,0.0,1.0
1635633833.84375,0,0,0.0,0.0,1.0
1635633834.3125,0,0,0.0,0.0,1.0
1635633834.78125,0,0,0.0,0.0,1.0
1635633835.25,0,0,100.42580699055638,0.0,1.0
1635633835.71875,0,0,73.36074404949305,0.0,1.0
1635633836.1875,0,0,66.23226929312027,0.0,1.0
1635633836.65625,0,0,0.0,0.0,1.0
1635633837.125,0,0,0.0,0.0,1.0
1635633837.59375,0,0,12.502610121964242,0.0,1.0
1635633838.0625,0,0,12.081917534186196,0.0,1.0
1635633838.53125,0,0,0.0,0.0,1.0
1635633839.0,0,0,26.264100115012802,0.0,1.0
1635633839.46875,0,0,19.153678623835617,0.0,1.0
1635633839.9375,0,0,0.0,0.0,1.0
1635633840.40625,0,0,17.75578672067126,0.0,1.0
1635633840.875,0,0,12.821419886787858,0.0,1.0
1635633841.34375,0,0,0.0,0.0,1.0
1635633841.8125,0,0,21.844892054831917,0.0,1.0
1635633842.28125,0,0,21.30057450222082,0.0,1.0
1635633842.75,0,0,0.0,0.0,1.0
1635633843.21875,0,0,22.068376970616224,0.0,1.0
1635633843.6875,0,0,13.83698015416892,0.0,1.0
1635633844.15625,0,0,0.0,0.0,1.0
1635633844.625,0,0,0.0,0.0,1.0
1635633845.09375,0,0,25.033530361293977,0.0,1.0
1635633845.5625,0,0,0.0,0.0,1.0
1635633846.03125,0,0,16.19439231630585,0.0,1.0
1635633846.5,0,0,10.370263619751332,0.0,1.0
1635633846.96875,0,0,20.163856232143374,0.0,1.0
1635633847.4375,0,0,0.0,0.0,1.0
1635633847.90625,0,0,27.693964874352048,0.0,1.0
1635633848.375,0,0,7.5164074833895995,0.0,1.0
1635633848.84375,0,0,0.0,0.0,1.0
1635633849.3125,0,0,121.95202322805267,0.0,1.0
1635633849.78125,0,0,55.680242178976854,0.0,1.0
1635633850.25,0,0,41.87370844763143,0.0,1.0
1635633850.71875,0,0,0.0,0.0,1.0
1635633851.1875,0,0,4.607097544071127,0.0,1.0
1635633851.65625,0,0,25.209043009291452,0.0,1.0
1635633852.125,0,0,23.673057590212963,0.0,1.0
1635633852.59375,0,0,0.0,0.0,1.0
1635633853.0625,0,0,14.737282920868136,0.0,1.0
1635633853.53125,0,0,17.162386678739907,0.0,1.0
1635633854.0,0,0,13.075121354317242,0.0,1.0
1635633854.46875,0,0,17.73940589879925,0.0,1.0
1635633854.9375,0,0,0.0,0.0,1.0
1635633855.40625,0,0,20.10084528002913,0.0,1.0
1635633855.875,0,0,17.09442332267979,0.0,1.0
1635633856.34375,0,0,15.430004857531062,0.0,1.0
1635633856.8125,0,0,0.0,0.0,1.0
1635633857.28125,0,0,0.0,0.0,1.0
1635633857.75,0,0,15.740249511392673,0.0,1.0
1635633858.21875,0,0,17.321274385199285,0.0,1.0
1635633858.6875,0,0,13.349369605605503,0.0,1.0
1635633859.15625,0,0,0.0,0.0,1.0
1635633859.625,0,0,12.442282567806858,0.0,1.0
1635633860.09375,0,0,20.45024293705875,0.0,1.0
1635633860.5625,0,0,0.0,0.0,1.0
1635633861.03125,0,0,12.55762394933818,0.0,1.0
1635633861.5,0,0,11.691793954953072,0.0,1.0
1635633861.96875,0,0,16.653264348531145,0.0,1.0
1635633862.4375,0,0,0.0,0.0,1.0
1635633862.90625,0,0,15.723906030051129,0.0,1.0
1635633863.375,0,0,9.69663153617417,0.0,1.0
1635633863.84375,0,0,0.0,0.0,1.0
1635633864.3125,0,0,11.221870478473832,0.0,1.0
1635633864.78125,0,0,12.951712668563408,0.0,1.0
1635633865.25,0,0,0.0,0.0,1.0
1635633865.71875,0,0,0.0,0.0,1.0
1635633866.1875,0,0,8.608589446925262,0.0,1.0
1635633866.65625,0,0,0.0,0.0,1.0
1635633867.125,0,0,0.0,0.0,1.0
1635633867.59375,0,0,16.284040045799433,0.0,1.0
1635633868.0625,0,0,13.43409004972072,0.0,1.0
1635633868.53125,0,0,0.0,0.0,1.0
1635633869.0,0,0,0.0,0.0,1.0
1635633869.46875,0,0,13.179646246836768,0.0,1.0
1635633869.9375,0,0,13.400843552446423,0.0,1.0
1635633870.40625,0,0,13.573343543511976,0.0,1.0
1635633870.875,0,0,13.533618985335588,0.0,1.0
1635633871.34375,0,0,17.17128444566239,0.0,1.0
1635633871.8125,0,0,0.0,0.0,1.0
1635633872.28125,0,0,13.732973238170892,0.0,1.0
1635633872.75,0,0,0.0,0.0,1.0
1635633873.21875,0,0,0.0,0.0,1.0
1635633873.6875,0,0,9.273618306706561,0.0,1.0
1635633874.15625,0,0,13.596956841128373,0.0,1.0
1635633874.625,0,0,0.0,0.0,1.0
1635633875.09375,0,0,0.0,0.0,1.0
1635633875.5625,0,0,9.230039048988333,0.0,1.0
1635633876.03125,0,0,0.0,0.0,1.0
1635633876.5,0,0,0.0,0.0,1.0
1635633876.96875,0,0,26.06273610110019,0.0,1.0
1635633877.4375,0,0,13.620192748881644,0.0,1.0
1635633877.90625,0,0,0.0,0.0,1.0
1635633878.375,0,0,18.806265971148573,0.0,1.0
1635633878.84375,0,0,13.942378660355505,0.0,1.0
1635633879.3125,0,0,17.15550777224823,0.0,1.0
1635633879.78125,0,0,0.0,0.0,1.0
1635633880.25,0,0,15.615290167801993,0.0,1.0
1635633880.71875,0,0,24.418785396961503,0.0,1.0
1635633881.1875,0,0,0.0,0.0,1.0
1635633881.65625,0,0,4.463055265799033,0.0,1.0
1635633882.125,0,0,12.342338988306766,0.0,1.0
1635633882.59375,0,0,0.0,0.0,1.0
1635633883.0625,0,0,22.262878645747083,0.0,1.0
1635633883.53125,0,0,11.370961604128551,0.0,1.0
1635633884.0,0,0,0.0,0.0,1.0
1635633884.46875,0,0,0.0,0.0,1.0
1635633884.9375,0,0,21.138954704279907,0.0,1.0
1635633885.40625,0,0,0.0,0.0,1.0
1635633885.875,0,0,20.166385458528175,0.0,1.0
1635633886.34375,0,0,13.240911938664933,0.0,1.0
1635633886.8125,0,0,19.625878814159655,0.0,1.0
1635633887.28125,0,0,0.0,0.0,1.0
1635633887.75,0,0,21.165165666219668,0.0,1.0
1635633888.21875,0,0,16.10800552466267,0.0,1.0
1635633888.6875,0,0,0.0,0.0,1.0
1635633889.15625,0,0,14.76514921486277,0.0,1.0
1635633889.625,0,0,16.077712449133877,0.0,1.0
1635633890.09375,0,0,4.956419312171245,0.0,1.0
1635633890.5625,0,0,15.12058278502053,0.0,1.0
1635633891.03125,0,0,18.61688118210521,0.0,1.0
1635633891.5,0,0,0.0,0.0,1.0
1635633891.96875,0,0,11.702279135383385,0.0,1.0
1635633892.4375,0,0,20.704882737312477,0.0,1.0
1635633892.90625,0,0,0.0,0.0,1.0
1635633893.375,0,0,17.254270006309294,0.0,1.0
1635633893.84375,0,0,17.01747650694596,0.0,1.0
1635633894.3125,0,0,0.0,0.0,1.0
1635633894.78125,0,0,19.94613255586038,0.0,1.0
1635633895.25,0,0,7.5554345753385075,0.0,1.0
1635633895.71875,0,0,7.939619156850716,0.0,1.0
1635633896.1875,0,0,37.08632655131131,0.0,1.0
1635633896.65625,0,0,3.2603525718140114,0.0,1.0
1635633897.125,0,0,27.278934837388203,0.0,1.0
1635633897.59375,0,0,0.0,0.0,1.0
1635633898.0625,0,0,17.536414672186535,0.0,1.0
1635633898.53125,0,0,5.52456987984872,0.0,1.0
1635633899.0,0,0,26.27211376541943,0.0,1.0
1635633899.46875,0,0,0.0,0.0,1.0
1635633899.9375,0,0,14.853058510261498,0.0,1.0
1635633900.40625,0,0,28.31891933221829,0.0,1.0
1635633900.875,0,0,0.0,0.0,1.0
1635633901.34375,0,0,5.396708279048498,0.0,1.0
1635633901.8125,0,0,15.812626867085617,0.0,1.0
1635633902.28125,0,0,0.0,0.0,1.0
1635633902.75,0,0,0.0,0.0,1.0
1635633903.21875,0,0,0.0,0.0,1.0
1635633903.6875,0,0,18.939183990391694,0.0,1.0
1635633904.15625,0,0,8.632046920260956,0.0,1.0
1635633904.625,0,0,15.101179238276742,0.0,1.0
1635633905.09375,0,0,0.0,0.0,1.0
1635633905.5625,0,0,22.736405554392924,0.0,1.0
1635633906.03125,0,0,0.0,0.0,1.0
1635633906.5,0,0,3.2652812981124244,0.0,1.0
1635633906.96875,0,0,37.53574042891058,0.0,1.0
1635633907.4375,0,0,9.082227850073632,0.0,1.0
1635633907.90625,0,0,0.0,0.0,1.0
1635633908.375,0,0,33.55149925780215,0.0,1.0
1635633908.84375,0,0,21.29917684437033,0.0,1.0
1635633909.3125,0,0,25.943061542531456,0.0,1.0
1635633909.78125,0,0,0.0,0.0,1.0
1635633910.25,0,0,0.0,0.0,1.0
1635633910.71875,0,0,21.723821005032637,0.0,1.0
1635633911.1875,0,0,0.0,0.0,1.0
1635633911.65625,0,0,18.841293544241665,0.0,1.0
1635633912.125,0,0,5.853875195744898,0.0,1.0
1635633912.59375,0,0,0.0,0.0,1.0
1635633913.0625,0,0,9.126025108177435,0.0,1.0
1635633913.53125,0,0,0.0,0.0,1.0
1635633914.0,0,0,5.522052592979922,0.0,1.0
1635633914.46875,0,0,4.347936933130416,0.0,1.0
1635633914.9375,0,0,3.9708892068599724,0.0,1.0
1635633915.40625,0,0,0.0,0.0,1.0
1635633915.875,0,0,14.970676111872187,0.0,1.0
1635633916.34375,0,0,7.383830176798555,0.0,1.0
1635633916.8125,0,0,0.0,0.0,1.0
1635633917.28125,0,0,18.654769080930294,0.0,1.0
1635633917.75,0,0,21.40886140850139,0.0,1.0
1635633918.21875,0,0,0.0,0.0,1.0
1635633918.6875,0,0,19.88548995210221,0.0,1.0
1635633919.15625,0,0,0.0,0.0,1.0
1635633919.625,0,0,19.32888687522789,0.0,1.0
1635633920.09375,0,0,22.73950685054319,0.0,1.0
1635633920.5625,0,0,0.0,0.0,1.0
1635633921.03125,0,0,25.4567890424766,0.0,1.0
1635633921.5,0,0,22.65831138116414,0.0,1.0
1635633921.96875,0,0,0.0,0.0,1.0
1635633922.4375,0,0,17.81414751512518,0.0,1.0
1635633922.90625,0,0,20.71311490812307,0.0,1.0
1635633923.375,0,0,0.0,0.0,1.0
1635633923.84375,0,0,19.78601558894441,0.0,1.0
1635633924.3125,0,0,13.852461368781693,0.0,1.0
1635633924.78125,0,0,0.0,0.0,1.0
1635633925.25,0,0,20.794813378638796,0.0,1.0
1635633925.71875,0,0,32.344394903330254,0.0,1.0
1635633926.1875,0,0,0.0,0.0,1.0
1635633926.65625,0,0,29.509020126885364,0.0,1.0
1635633927.125,0,0,11.437863234353669,0.0,1.0
1635633927.59375,0,0,0.0,0.0,1.0
1635633928.0625,0,0,0.0,0.0,1.0
1635633928.53125,0,0,20.49805336143563,0.0,1.0
1635633929.0,0,0,0.0,0.0,1.0
1635633929.46875,0,0,19.920392842535552,0.0,1.0
1635633929.9375,0,0,14.348200211703915,0.0,1.0
1635633930.40625,0,0,21.401844323919562,0.0,1.0
1635633930.875,0,0,0.0,0.0,1.0
1635633931.34375,0,0,24.005419256723883,0.0,1.0
1635633931.8125,0,0,9.813012657980646,0.0,1.0
1635633932.28125,0,0,0.0,0.0,1.0
1635633932.75,0,0,22.881482068039677,0.0,1.0
1635633933.21875,0,0,23.054614612708,0.0,1.0
1635633933.6875,0,0,0.0,0.0,1.0
1635633934.15625,0,0,15.708488860771423,0.0,1.0
1635633934.625,0,0,17.21336323431519,0.0,1.0
1635633935.09375,0,0,0.0,0.0,1.0
1635633935.5625,0,0,20.663261752221107,0.0,1.0
1635633936.03125,0,0,0.0,0.0,1.0
1635633936.5,0,0,0.0,0.0,1.0
1635633936.96875,0,0,19.50415100709344,0.0,1.0
1635633937.4375,0,0,19.938617003953272,0.0,1.0
1635633937.90625,0,0,0.0,0.0,1.0
1635633938.375,0,0,22.766191893742104,0.0,1.0
1635633938.84375,0,0,8.866817850397833,0.0,1.0
1635633939.3125,0,0,0.0,0.0,1.0
1635633939.78125,0,0,22.792494912010184,0.0,1.0
1635633940.25,0,0,21.1098650205693,0.0,1.0
1635633940.71875,0,0,0.0,0.0,1.0
1635633941.1875,0,0,16.461421301047228,0.0,1.0
1635633941.65625,0,0,9.405021721869682,0.0,1.0
1635633942.125,0,0,0.0,0.0,1.0
1635633942.59375,0,0,0.0,0.0,1.0
1635633943.0625,0,0,24.581338925357638,0.0,1.0
1635633943.53125,0,0,0.0,0.0,1.0
1635633944.0,0,0,21.174154299418298,0.0,1.0
1635633944.46875,0,0,7.07992122604304,0.0,1.0
1635633944.9375,0,0,20.88979817775659,0.0,1.0
1635633945.40625,0,0,0.0,0.0,1.0
1635633945.875,0,0,18.65398204352399,0.0,1.0
1635633946.34375,0,0,0.0,0.0,1.0
1635633946.8125,0,0,0.0,0.0,1.0
1635633947.28125,0,0,10.98437489284721,0.0,1.0
1635633947.75,0,0,22.25466066651703,0.0,1.0
1635633948.21875,0,0,0.0,0.0,1.0
1635633948.6875,0,0,17.323200515716078,0.0,1.0
1635633949.15625,0,0,13.0000382506277,0.0,1.0
1635633949.625,0,0,0.0,0.0,1.0
1635633950.09375,0,0,0.0,0.0,1.0
1635633950.5625,0,0,24.166413176863532,0.0,1.0
1635633951.03125,0,0,20.926001779914348,0.0,1.0
1635633951.5,0,0,0.0,0.0,1.0
1635633951.96875,0,0,14.932923113748057,0.0,1.0
1635633952.4375,0,0,15.599243036530396,0.0,1.0
1635633952.90625,0,0,0.0,0.0,1.0
1635633953.375,0,0,17.37895949507502,0.0,1.0
1635633953.84375,0,0,52.022438397986875,0.0,1.0
1635633954.3125,0,0,0.0,0.0,1.0
1635633954.78125,0,0,30.551922567070147,0.0,1.0
1635633955.25,0,0,43.79185325094734,0.0,1.0
1635633955.71875,0,0,0.0,0.0,1.0
1635633956.1875,0,0,7.858771026162268,0.0,1.0
1635633956.65625,0,0,23.89018709417231,0.0,1.0
1635633957.125,0,0,12.746127197337712,0.0,1.0
1635633957.59375,0,0,0.0,0.0,1.0
1635633958.0625,0,0,18.063678016477812,0.0,1.0
1635633958.53125,0,0,26.080938604418257,0.0,1.0
1635633959.0,0,0,16.20089453370992,0.0,1.0
1635633959.46875,0,0,0.0,0.0,1.0
1635633959.9375,0,0,17.12836071997586,0.0,1.0
1635633960.40625,0,0,0.0,0.0,1.0
1635633960.875,0,0,10.468072948329203,0.0,1.0
1635633961.34375,0,0,16.802039597497863,0.0,1.0
1635633961.8125,0,0,0.0,0.0,1.0
1635633962.28125,0,0,14.057135301390067,0.0,1.0
1635633962.75,0,0,0.0,0.0,1.0
1635633963.21875,0,0,0.0,0.0,1.0
1635633963.6875,0,0,5.751862719732242,0.0,1.0
1635633964.15625,0,0,25.310526215838816,0.0,1.0
1635633964.625,0,0,27.76350076320961,0.0,1.0
1635633965.09375,0,0,0.0,0.0,1.0
1635633965.5625,0,0,25.92264306515823,0.0,1.0
1635633966.03125,0,0,0.0,0.0,1.0
1635633966.5,0,0,0.0,0.0,1.0
1635633966.96875,0,0,0.0,0.0,1.0
1635633967.4375,0,0,62.08638455996323,0.0,1.0
1635633967.90625,0,0,4.472631405853544,0.0,1.0
1635633968.375,0,0,0.0,0.0,1.0
1635633968.84375,0,0,13.754645903547143,0.0,1.0
1635633969.3125,0,0,23.002539976721366,0.0,1.0
1635633969.78125,0,0,10.383430343310076,0.0,1.0
1635633970.25,0,0,16.060770379290094,0.0,1.0
1635633970.71875,0,0,0.0,0.0,1.0
1635633971.1875,0,0,15.608672027091465,0.0,1.0
1635633971.65625,0,0,14.908013767852312,0.0,1.0
1635633972.125,0,0,0.0,0.0,1.0
1635633972.59375,0,0,16.416336506142862,0.0,1.0
1635633973.0625,0,0,6.705117789687867,0.0,1.0
1635633973.53125,0,0,18.03761804494756,0.0,1.0
1635633974.0,0,0,0.0,0.0,1.0
1635633974.46875,0,0,0.0,0.0,1.0
1635633974.9375,0,0,19.32661351001785,0.0,1.0
1635633975.40625,0,0,0.0,0.0,1.0
1635633975.875,0,0,12.883987755100517,0.0,1.0
1635633976.34375,0,0,22.264377860809432,0.0,1.0
1635633976.8125,0,0,18.42683847188181,0.0,1.0
1635633977.28125,0,0,0.0,0.0,1.0
1635633977.75,0,0,16.810079151271893,0.0,1.0
1635633978.21875,0,0,12.444057080868419,0.0,1.0
1635633978.6875,0,0,0.0,0.0,1.0
1635633979.15625,0,0,0.0,0.0,1.0
1635633979.625,0,0,13.284245002176092,0.0,1.0
1635633980.09375,0,0,0.0,0.0,1.0
1635633980.5625,0,0,18.103060560846572,0.0,1.0
1635633981.03125,0,0,9.2192282250835,0.0,1.0
1635633981.5,0,0,20.635852388795627,0.0,1.0
1635633981.96875,0,0,0.0,0.0,1.0
1635633982.4375,0,0,23.954405024549136,0.0,1.0
1635633982.90625,0,0,0.0,0.0,1.0
1635633983.375,0,0,12.181510335555208,0.0,1.0
1635633983.84375,0,0,19.97524417807341,0.0,1.0
1635633984.3125,0,0,20.06396092453495,0.0,1.0
1635633984.78125,0,0,0.0,0.0,1.0
1635633985.25,0,0,18.45915103441039,0.0,1.0
1635633985.71875,0,0,0.0,0.0,1.0
1635633986.1875,0,0,0.0,0.0,1.0
1635633986.65625,0,0,21.448413142831967,0.0,1.0
1635633987.125,0,0,0.0,0.0,1.0
1635633987.59375,0,0,23.626665642150773,0.0,1.0
1635633988.0625,0,0,5.575941388019644,0.0,1.0
1635633988.53125,0,0,0.0,0.0,1.0
1635633989.0,0,0,19.430981299367517,0.0,1.0
1635633989.46875,0,0,19.218978473912593,0.0,1.0
1635633989.9375,0,0,0.0,0.0,1.0
1635633990.40625,0,0,22.724383479768033,0.0,1.0
1635633990.875,0,0,5.925974745871235,0.0,1.0
1635633991.34375,0,0,0.0,0.0,1.0
1635633991.8125,0,0,13.831886264904007,0.0,1.0
1635633992.28125,0,0,19.580422695449993,0.0,1.0
1635633992.75,0,0,0.0,0.0,1.0
1635633993.21875,0,0,0.0,0.0,1.0
1635633993.6875,0,0,8.984979242057584,0.0,1.0
1635633994.15625,0,0,17.579714991233715,0.0,1.0
1635633994.625,0,0,0.0,0.0,1.0
1635633995.09375,0,0,20.365908936486694,0.0,1.0
1635633995.5625,0,0,0.0,0.0,1.0
1635633996.03125,0,0,28.215863713081685,0.0,1.0
1635633996.5,0,0,4.432020001456314,0.0,1.0
1635633996.96875,0,0,0.0,0.0,1.0
1635633997.4375,0,0,0.0,0.0,1.0
1635633997.90625,0,0,16.151484778386454,0.0,1.0
1635633998.375,0,0,0.0,0.0,1.0
1635633998.84375,0,0,12.274129530530406,0.0,1.0
1635633999.3125,0,0,10.563353684960548,0.0,1.0
1635633999.78125,0,0,23.29719975285434,0.0,1.0
1635634000.25,0,0,0.0,0.0,1.0
1635634000.71875,0,0,11.150708809231785,0.0,1.0
1635634001.1875,0,0,16.066082175068342,0.0,1.0
1635634001.65625,0,0,0.0,0.0,1.0
1635634002.125,0,0,7.509404082059851,0.0,1.0
1635634002.59375,0,0,21.207237293103713,0.0,1.0
1635634003.0625,0,0,0.0,0.0,1.0
1635634003.53125,0,0,23.762562175667284,0.0,1.0
1635634004.0,0,0,5.237158528430187,0.0,1.0
1635634004.46875,0,0,0.0,0.0,1.0
1635634004.9375,0,0,16.667364630973527,0.0,1.0
1635634005.40625,0,0,21.449623123033984,0.0,1.0
1635634005.875,0,0,0.0,0.0,1.0
1635634006.34375,0,0,25.18306177788147,0.0,1.0
1635634006.8125,0,0,2.0231922967469065,0.0,1.0
1635634007.28125,0,0,17.8513604876265,0.0,1.0
1635634007.75,0,0,0.0,0.0,1.0
1635634008.21875,0,0,20.35170620659003,0.0,1.0
1635634008.6875,0,0,0.0,0.0,1.0
1635634009.15625,0,0,21.784941170968043,0.0,1.0
1635634009.625,0,0,4.719263961567346,0.0,1.0
1635634010.09375,0,0,16.45510854231955,0.0,1.0
1635634010.5625,0,0,0.0,0.0,1.0
1635634011.03125,0,0,18.20265225956274,0.0,1.0
1635634011.5,0,0,14.637359618251299,0.0,1.0
1635634011.96875,0,0,0.0,0.0,1.0
1635634012.4375,0,0,3.58833363175175,0.0,1.0
1635634012.90625,0,0,49.94123938197224,0.0,1.0
1635634013.375,0,0,0.0,0.0,1.0
1635634013.84375,0,0,30.783079904162204,0.0,1.0
1635634014.3125,0,0,29.878412809417384,0.0,1.0
1635634014.78125,0,0,0.0,0.0,1.0
1635634015.25,0,0,14.101467802203867,0.0,1.0
1635634015.71875,0,0,24.263756782116825,0.0,1.0
1635634016.1875,0,0,0.0,0.0,1.0
1635634016.65625,0,0,18.779127577927877,0.0,1.0
1635634017.125,0,0,12.55593320664392,0.0,1.0
1635634017.59375,0,0,19.929227811803205,0.0,1.0
1635634018.0625,0,0,0.0,0.0,1.0
1635634018.53125,0,0,23.34716601267935,0.0,1.0
1635634019.0,0,0,19.517073639956436,0.0,1.0
1635634019.46875,0,0,0.0,0.0,1.0
1635634019.9375,0,0,14.757786964891896,0.0,1.0
1635634020.40625,0,0,14.554741069137993,0.0,1.0
1635634020.875,0,0,0.0,0.0,1.0
1635634021.34375,0,0,22.57163189442596,0.0,1.0
1635634021.8125,0,0,20.24475886288683,0.0,1.0
1635634022.28125,0,0,0.0,0.0,1.0
1635634022.75,0,0,15.876428278647353,0.0,1.0
1635634023.21875,0,0,21.306496537322587,0.0,1.0
1635634023.6875,0,0,0.0,0.0,1.0
1635634024.15625,0,0,0.0,0.0,1.0
1635634024.625,0,0,13.198262935739322,0.0,1.0
1635634025.09375,0,0,0.0,0.0,1.0
1635634025.5625,0,0,79.54519647878332,0.0,1.0
1635634026.03125,0,0,0.0,0.0,1.0
1635634026.5,0,0,39.73943297228243,0.0,1.0
1635634026.96875,0,0,44.28727904922778,0.0,1.0
1635634027.4375,0,0,0.0,0.0,1.0
1635634027.90625,0,0,11.405448883918567,0.0,1.0
1635634028.375,0,0,22.319691706032213,0.0,1.0
1635634028.84375,0,0,-3.6955178686761454,0.0,1.0
1635634029.3125,0,0,13.798554158531283,0.0,1.0
1635634029.78125,0,0,14.32968894548698,0.0,1.0
1635634030.25,0,0,0.0,0.0,1.0
1635634030.71875,0,0,13.942539219711959,0.0,1.0
1635634031.1875,0,0,13.322672452660573,0.0,1.0
1635634031.65625,0,0,14.750674259285615,0.0,1.0
1635634032.125,0,0,0.0,0.0,1.0
1635634032.59375,0,0,12.938216415032311,0.0,1.0
1635634033.0625,0,0,14.187890937952366,0.0,1.0
1635634033.53125,0,0,13.961867660437889,0.0,1.0
1635634034.0,0,0,0.0,0.0,1.0
1635634034.46875,0,0,14.148007626395488,0.0,1.0
1635634034.9375,0,0,14.203502392043653,0.0,1.0
1635634035.40625,0,0,0.0,0.0,1.0
1635634035.875,0,0,0.0,0.0,1.0
1635634036.34375,0,0,18.518576380544545,0.0,1.0
1635634036.8125,0,0,20.591890524842107,0.0,1.0
1635634037.28125,0,0,0.0,0.0,1.0
1635634037.75,0,0,16.853225981757465,0.0,1.0
1635634038.21875,0,0,18.674957072852937,0.0,1.0
1635634038.6875,0,0,0.0,0.0,1.0
1635634039.15625,0,0,17.38950693404243,0.0,1.0
1635634039.625,0,0,22.8454207165133,0.0,1.0
1635634040.09375,0,0,0.0,0.0,1.0
1635634040.5625,0,0,19.391015112430015,0.0,1.0
1635634041.03125,0,0,17.70216197493493,0.0,1.0
1635634041.5,0,0,0.0,0.0,1.0
1635634041.96875,0,0,15.808292231706513,0.0,1.0
1635634042.4375,0,0,0.0,0.0,1.0
1635634042.90625,0,0,0.0,0.0,1.0
1635634043.375,0,0,17.132794874407793,0.0,1.0
1635634043.84375,0,0,0.0,0.0,1.0
1635634044.3125,0,0,12.985665504404487,0.0,1.0
1635634044.78125,0,0,15.543020634980518,0.0,1.0
1635634045.25,0,0,0.0,0.0,1.0
1635634045.71875,0,0,15.889863317160362,0.0,1.0
1635634046.1875,0,0,14.552843242290438,0.0,1.0
1635634046.65625,0,0,0.0,0.0,1.0
1635634047.125,0,0,17.520265298030615,0.0,1.0
1635634047.59375,0,0,16.880145626021314,0.0,1.0
1635634048.0625,0,0,0.0,0.0,1.0
1635634048.53125,0,0,15.93338781405259,0.0,1.0
1635634049.0,0,0,15.791079694137434,0.0,1.0
1635634049.46875,0,0,0.0,0.0,1.0
1635634049.9375,0,0,20.005778118898945,0.0,1.0
1635634050.40625,0,0,0.0,0.0,1.0
1635634050.875,0,0,15.681855633652548,0.0,1.0
1635634051.34375,0,0,16.461683782617953,0.0,1.0
1635634051.8125,0,0,15.25256707749205,0.0,1.0
1635634052.28125,0,0,0.0,0.0,1.0
1635634052.75,0,0,19.323610573100055,0.0,1.0
1635634053.21875,0,0,0.0,0.0,1.0
1635634053.6875,0,0,0.0,0.0,1.0
1635634054.15625,0,0,17.551923468924638,0.0,1.0
1635634054.625,0,0,0.0,0.0,1.0
1635634055.09375,0,0,0.0,0.0,1.0
1635634055.5625,0,0,14.410468986933815,0.0,1.0
1635634056.03125,0,0,0.0,0.0,1.0
1635634056.5,0,0,13.785794483332875,0.0,1.0
1635634056.96875,0,0,14.125309752728121,0.0,1.0
1635634057.4375,0,0,0.0,0.0,1.0
1635634057.90625,0,0,15.015238578348747,0.0,1.0
1635634058.375,0,0,0.0,0.0,1.0
1635634058.84375,0,0,11.744096483073756,0.0,1.0
1635634059.3125,0,0,11.078682943071497,0.0,1.0
1635634059.78125,0,0,0.0,0.0,1.0
1635634060.25,0,0,0.0,0.0,1.0
1635634060.71875,0,0,13.51023277915237,0.0,1.0
1635634061.1875,0,0,11.747145003953667,0.0,1.0
1635634061.65625,0,0,0.0,0.0,1.0
1635634062.125,0,0,14.154266498384526,0.0,1.0
1635634062.59375,0,0,15.160697099467932,0.0,1.0
1635634063.0625,0,0,0.0,0.0,1.0
1635634063.53125,0,0,11.355215262791525,0.0,1.0
1635634064.0,0,0,9.917491466676104,0.0,1.0
1635634064.46875,0,0,0.0,0.0,1.0
1635634064.9375,0,0,9.733237494073702,0.0,1.0
1635634065.40625,0,0,12.926002334943522,0.0,1.0
1635634065.875,0,0,0.0,0.0,1.0
1635634066.34375,0,0,13.384013882653335,0.0,1.0
1635634066.8125,0,0,9.488039856398514,0.0,1.0
1635634067.28125,0,0,0.0,0.0,1.0
1635634067.75,0,0,10.855537715836956,0.0,1.0
1635634068.21875,0,0,10.945615408446494,0.0,1.0
1635634068.6875,0,0,0.0,0.0,1.0
1635634069.15625,0,0,12.47706571857523,0.0,1.0
1635634069.625,0,0,0.0,0.0,1.0
1635634070.09375,0,0,9.671794640446159,0.0,1.0
1635634070.5625,0,0,19.13366937597069,0.0,1.0
1635634071.03125,0,0,2.6049735238230585,0.0,1.0
1635634071.5,0,0,0.0,0.0,1.0
1635634071.96875,0,0,0.0,0.0,1.0
1635634072.4375,0,0,121.1764927044759,0.0,1.0
1635634072.90625,0,0,0.0,0.0,1.0
1635634073.375,0,0,88.5880472886776,0.0,1.0
1635634073.84375,0,0,-0.23409432807769565,0.0,1.0
1635634074.3125,0,0,-6.863581198246317,0.0,1.0
1635634074.78125,0,0,0.0,0.0,1.0
1635634075.25,0,0,25.60417771075895,0.0,1.0
1635634075.71875,0,0,25.579911534142155,0.0,1.0
1635634076.1875,0,0,0.0,0.0,1.0
1635634076.65625,0,0,13.929481224005437,0.0,1.0
1635634077.125,0,0,12.967078398360105,0.0,1.0
1635634077.59375,0,0,0.0,0.0,1.0
1635634078.0625,0,0,11.671326488638366,0.0,1.0
1635634078.53125,0,0,0.0,0.0,1.0
1635634079.0,0,0,42.28061548085536,0.0,1.0
1635634079.46875,0,0,0.0,0.0,1.0
1635634079.9375,0,0,3.3716917856486006,0.0,1.0
1635634080.40625,0,0,4.0962037047637985,0.0,1.0
1635634080.875,0,0,0.3691195227966622,0.0,1.0
1635634081.34375,0,0,1.8962030260690477,0.0,1.0
1635634081.8125,0,0,5.325831465289853,0.0,1.0
1635634082.28125,0,0,6.033742299015431,0.0,1.0
1635634082.75,0,0,0.0,0.0,1.0
1635634083.21875,0,0,13.45108762984,0.0,1.0
1635634083.6875,0,0,14.292019865634256,0.0,1.0
1635634084.15625,0,0,5.878291824018161,0.0,1.0
1635634084.625,0,0,21.836528938340955,0.0,1.0
1635634085.09375,0,0,16.485767797411658,0.0,1.0
1635634085.5625,0,0,18.39890271245955,0.0,1.0
1635634086.03125,0,0,0.0,0.0,1.0
1635634086.5,0,0,23.55064688833323,0.0,1.0
1635634086.96875,0,0,17.66564736862696,0.0,1.0
1635634087.4375,0,0,21.805179114900962,0.0,1.0
1635634087.90625,0,0,0.0,0.0,1.0
1635634088.375,0,0,9.379249374717983,0.0,1.0
1635634088.84375,0,0,12.490312733470933,0.0,1.0
1635634089.3125,0,0,0.0,0.0,1.0
1635634089.78125,0,0,17.446652429641365,0.0,1.0
1635634090.25,0,0,2.187900264876936,0.0,1.0
1635634090.71875,0,0,0.0,0.0,1.0
1635634091.1875,0,0,21.824303780685685,0.0,1.0
1635634091.65625,0,0,0.7112510906937836,0.0,1.0
1635634092.125,0,0,0.0,0.0,1.0
1635634092.59375,0,0,9.893946928085482,0.0,1.0
1635634093.0625,0,0,10.066491413325137,0.0,1.0
1635634093.53125,0,0,0.0,0.0,1.0
1635634094.0,0,0,3.4929752479103833,0.0,1.0
1635634094.46875,0,0,14.223264130341759,0.0,1.0
1635634094.9375,0,0,9.447489559076313,0.0,1.0
1635634095.40625,0,0,0.0,0.0,1.0
1635634095.875,0,0,13.850462314608096,0.0,1.0
1635634096.34375,0,0,17.534101395713613,0.0,1.0
1635634096.8125,0,0,0.0,0.0,1.0
1635634097.28125,0,0,8.249414242834614,0.0,1.0
1635634097.75,0,0,11.234620107665071,0.0,1.0
1635634098.21875,0,0,0.0,0.0,1.0
1635634098.6875,0,0,12.060583792208044,0.0,1.0
1635634099.15625,0,0,11.547893204932437,0.0,1.0
1635634099.625,0,0,0.0,0.0,1.0
1635634100.09375,0,0,6.788003230687186,0.0,1.0
1635634100.5625,0,0,12.83115084526201,0.0,1.0
1635634101.03125,0,0,12.347444062352057,0.0,1.0
1635634101.5,0,0,0.0,0.0,1.0
1635634101.96875,0,0,13.228193251697242,0.0,1.0
1635634102.4375,0,0,0.0,0.0,1.0
1635634102.90625,0,0,10.316763818743635,0.0,1.0
1635634103.375,0,0,10.311853942398459,0.0,1.0
1635634103.84375,0,0,13.4326900821489,0.0,1.0
1635634104.3125,0,0,0.0,0.0,1.0
1635634104.78125,0,0,11.658202217137601,0.0,1.0
1635634105.25,0,0,12.21209785852374,0.0,1.0
1635634105.71875,0,0,0.0,0.0,1.0
1635634106.1875,0,0,9.613976419079874,0.0,1.0
1635634106.65625,0,0,12.829197721097545,0.0,1.0
1635634107.125,0,0,0.0,0.0,1.0
1635634107.59375,0,0,17.015749334740853,0.0,1.0
1635634108.0625,0,0,8.847458837367418,0.0,1.0
1635634108.53125,0,0,16.833159201304547,0.0,1.0
1635634109.0,0,0,0.0,0.0,1.0
1635634109.46875,0,0,19.78949358774252,0.0,1.0
1635634109.9375,0,0,11.091790217073703,0.0,1.0
1635634110.40625,0,0,0.0,0.0,1.0
1635634110.875,0,0,11.917070092477516,0.0,1.0
1635634111.34375,0,0,22.290556062846214,0.0,1.0
1635634111.8125,0,0,0.0,0.0,1.0
1635634112.28125,0,0,13.949182362212209,0.0,1.0
1635634112.75,0,0,10.661138449602023,0.0,1.0
1635634113.21875,0,0,0.0,0.0,1.0
1635634113.6875,0,0,9.887341420533573,0.0,1.0
1635634114.15625,0,0,17.806195927762346,0.0,1.0
1635634114.625,0,0,0.0,0.0,1.0
1635634115.09375,0,0,0.0,0.0,1.0
1635634115.5625,0,0,7.531092244459391,0.0,1.0
1635634116.03125,0,0,13.051850889899331,0.0,1.0
1635634116.5,0,0,0.0,0.0,1.0
1635634116.96875,0,0,14.69486863484102,0.0,1.0
1635634117.4375,0,0,7.4758851103040564,0.0,1.0
1635634117.90625,0,0,11.761865169432697,0.0,1.0
1635634118.375,0,0,0.0,0.0,1.0
1635634118.84375,0,0,15.212193742878217,0.0,1.0
1635634119.3125,0,0,18.566075704656935,0.0,1.0
1635634119.78125,0,0,0.0,0.0,1.0
1635634120.25,0,0,14.378656264268955,0.0,1.0
1635634120.71875,0,0,9.401937146244974,0.0,1.0
1635634121.1875,0,0,6.274832402409625,0.0,1.0
1635634121.65625,0,0,4.215241931557504,0.0,1.0
1635634122.125,0,0,15.886205657239355,0.0,1.0
1635634122.59375,0,0,11.662245068945381,0.0,1.0
1635634123.0625,0,0,0.0,0.0,1.0
1635634123.53125,0,0,6.484031002113273,0.0,1.0
1635634124.0,0,0,9.461350131536323,0.0,1.0
1635634124.46875,0,0,0.0,0.0,1.0
1635634124.9375,0,0,9.176367321781001,0.0,1.0
1635634125.40625,0,0,13.36653384050053,0.0,1.0
1635634125.875,0,0,0.0,0.0,1.0
1635634126.34375,0,0,0.0,0.0,1.0
1635634126.8125,0,0,14.997654745437131,0.0,1.0
1635634127.28125,0,0,0.0,0.0,1.0
1635634127.75,0,0,0.0,0.0,1.0
1635634128.21875,0,0,7.922926334912221,0.0,1.0
1635634128.6875,0,0,13.709032534551607,0.0,1.0
1635634129.15625,0,0,0.0,0.0,1.0
1635634129.625,0,0,29.362721162366793,0.0,1.0
1635634130.09375,0,0,6.1334922516475725,0.0,1.0
1635634130.5625,0,0,0.0,0.0,1.0
1635634131.03125,0,0,136.28475400481634,0.0,1.0
1635634131.5,0,0,-9.622836403303765,0.0,1.0
1635634131.96875,0,0,22.682486127843013,0.0,1.0
1635634132.4375,0,0,59.485859231140196,0.0,1.0
1635634132.90625,0,0,18.142907171531355,0.0,1.0
1635634133.375,0,0,0.0,0.0,1.0
1635634133.84375,0,0,0.5088447014587737,0.0,1.0
1635634134.3125,0,0,19.301810307014186,0.0,1.0
1635634134.78125,0,0,20.175352912669315,0.0,1.0
1635634135.25,0,0,0.0,0.0,1.0
1635634135.71875,0,0,16.99067465835464,0.0,1.0
1635634136.1875,0,0,12.662234100401639,0.0,1.0
1635634136.65625,0,0,0.0,0.0,1.0
1635634137.125,0,0,13.888150450151919,0.0,1.0
1635634137.59375,0,0,14.741821420768101,0.0,1.0
1635634138.0625,0,0,0.0,0.0,1.0
1635634138.53125,0,0,13.961886831986794,0.0,1.0
1635634139.0,0,0,2.7428906940995734,0.0,1.0
1635634139.46875,0,0,2.51325932342158,0.0,1.0
1635634139.9375,0,0,19.310172982638523,0.0,1.0
1635634140.40625,0,0,21.303051670696412,0.0,1.0
1635634140.875,0,0,0.0,0.0,1.0
1635634141.34375,0,0,0.0,0.0,1.0
1635634141.8125,0,0,-19.110991155465822,0.0,1.0
1635634142.28125,0,0,179.1878556576348,0.0,1.0
1635634142.75,0,0,0.0,0.0,1.0
1635634143.21875,0,0,59.94487394846479,0.0,1.0
1635634143.6875,0,0,46.65177076000102,0.0,1.0
1635634144.15625,0,0,4.406617020187006,0.0,1.0
1635634144.625,0,0,0.0,0.0,1.0
1635634145.09375,0,0,12.903250447192242,0.0,1.0
1635634145.5625,0,0,17.254661400084668,0.0,1.0
1635634146.03125,0,0,6.770470569806065,0.0,1.0
1635634146.5,0,0,0.0,0.0,1.0
1635634146.96875,0,0,13.392043221148336,0.0,1.0
1635634147.4375,0,0,14.647309934297535,0.0,1.0
1635634147.90625,0,0,0.0,0.0,1.0
1635634148.375,0,0,0.0,0.0,1.0
1635634148.84375,0,0,8.911870019162365,0.0,1.0
1635634149.3125,0,0,0.0,0.0,1.0
1635634149.78125,0,0,13.935499326729563,0.0,1.0
1635634150.25,0,0,0.0,0.0,1.0
1635634150.71875,0,0,7.425817622766861,0.0,1.0
1635634151.1875,0,0,0.0,0.0,1.0
1635634151.65625,0,0,17.385834487426518,0.0,1.0
1635634152.125,0,0,9.448727604379894,0.0,1.0
1635634152.59375,0,0,12.100429205454263,0.0,1.0
1635634153.0625,0,0,12.357112014484624,0.0,1.0
1635634153.53125,0,0,14.74343416598802,0.0,1.0
1635634154.0,0,0,10.196689943808664,0.0,1.0
1635634154.46875,0,0,0.0,0.0,1.0
1635634154.9375,0,0,21.634511437678118,0.0,1.0
1635634155.40625,0,0,15.804873464064002,0.0,1.0
1635634155.875,0,0,0.0,0.0,1.0
1635634156.34375,0,0,0.0,0.0,1.0
1635634156.8125,0,0,9.992618340983428,0.0,1.0
1635634157.28125,0,0,0.0,0.0,1.0
1635634157.75,0,0,0.0,0.0,1.0
1635634158.21875,0,0,11.760889970488883,0.0,1.0
1635634158.6875,0,0,10.853072650220849,0.0,1.0
1635634159.15625,0,0,0.0,0.0,1.0
1635634159.625,0,0,20.273574506007503,0.0,1.0
1635634160.09375,0,0,10.29380356123233,0.0,1.0
1635634160.5625,0,0,0.0,0.0,1.0
1635634161.03125,0,0,14.946205301355882,0.0,1.0
1635634161.5,0,0,0.0,0.0,1.0
1635634161.96875,0,0,0.0,0.0,1.0
1635634162.4375,0,0,12.359853898117201,0.0,1.0
1635634162.90625,0,0,13.29773988762122,0.0,1.0
1635634163.375,0,0,0.0,0.0,1.0
1635634163.84375,0,0,22.141478786358526,0.0,1.0
1635634164.3125,0,0,7.851624958686462,0.0,1.0
1635634164.78125,0,0,0.0,0.0,1.0
1635634165.25,0,0,16.549433463967745,0.0,1.0
1635634165.71875,0,0,13.645083585643794,0.0,1.0
1635634166.1875,0,0,0.0,0.0,1.0
1635634166.65625,0,0,12.544179440466547,0.0,1.0
1635634167.125,0,0,17.62510646407916,0.0,1.0
1635634167.59375,0,0,0.0,0.0,1.0
1635634168.0625,0,0,19.327318100587778,0.0,1.0
1635634168.53125,0,0,12.77406114126483,0.0,1.0
1635634169.0,0,0,0.0,0.0,1.0
1635634169.46875,0,0,15.90004914173027,0.0,1.0
1635634169.9375,0,0,8.111416947430104,0.0,1.0
1635634170.40625,0,0,0.0,0.0,1.0
1635634170.875,0,0,0.0,0.0,1.0
1635634171.34375,0,0,17.86829557756651,0.0,1.0
1635634171.8125,0,0,17.710540062835275,0.0,1.0
1635634172.28125,0,0,0.0,0.0,1.0
1635634172.75,0,0,10.881239906657271,0.0,1.0
1635634173.21875,0,0,22.14705089972133,0.0,1.0
1635634173.6875,0,0,0.0,0.0,1.0
1635634174.15625,0,0,22.700910132466767,0.0,1.0
1635634174.625,0,0,17.04088713446685,0.0,1.0
1635634175.09375,0,0,21.41963299436575,0.0,1.0
1635634175.5625,0,0,0.0,0.0,1.0
1635634176.03125,0,0,19.80069274864487,0.0,1.0
1635634176.5,0,0,15.61535065404168,0.0,1.0
1635634176.96875,0,0,0.0,0.0,1.0
1635634177.4375,0,0,18.34395152258425,0.0,1.0
1635634177.90625,0,0,19.685879863627186,0.0,1.0
1635634178.375,0,0,0.0,0.0,1.0
1635634178.84375,0,0,17.55474309259231,0.0,1.0
1635634179.3125,0,0,17.21992311426066,0.0,1.0
1635634179.78125,0,0,0.0,0.0,1.0
1635634180.25,0,0,17.366206774454408,0.0,1.0
1635634180.71875,0,0,19.510544358341868,0.0,1.0
1635634181.1875,0,0,0.0,0.0,1.0
1635634181.65625,0,0,16.31412279449103,0.0,1.0
1635634182.125,0,0,13.727168510556229,0.0,1.0
1635634182.59375,0,0,15.399966212299685,0.0,1.0
1635634183.0625,0,0,0.0,0.0,1.0
1635634183.53125,0,0,58.51606431209329,0.0,1.0
1635634184.0,0,0,13.051229010190292,0.0,1.0
1635634184.46875,0,0,215.00504046711916,0.0,1.0
1635634184.9375,0,0,-6.050315571512014,0.0,1.0
1635634185.40625,0,0,73.9094428007243,0.0,1.0
1635634185.875,0,0,0.0,0.0,1.0
1635634186.34375,0,0,15.286597758137258,0.0,1.0
1635634186.8125,0,0,0.0,0.0,1.0
1635634187.28125,0,0,0.0,0.0,1.0
1635634187.75,0,0,30.65224171737174,0.0,1.0
1635634188.21875,0,0,19.11449887002265,0.0,1.0
1635634188.6875,0,0,0.0,0.0,1.0
1635634189.15625,0,0,8.604124321261896,0.0,1.0
1635634189.625,0,0,110.92302079643352,0.0,1.0
1635634190.09375,0,0,67.33120061417318,0.0,1.0
1635634190.5625,0,0,38.345137056293886,0.0,1.0
1635634191.03125,0,0,39.49499610717632,0.0,1.0
1635634191.5,0,0,0.0,0.0,1.0
1635634191.96875,0,0,0.0,0.0,1.0
1635634192.4375,0,0,12.338700270547884,0.0,1.0
1635634192.90625,0,0,17.3925098901551,0.0,1.0
1635634193.375,0,0,0.0,0.0,1.0
1635634193.84375,0,0,0.0,0.0,1.0
1635634194.3125,0,0,21.252725345961977,0.0,1.0
1635634194.78125,0,0,0.0,0.0,1.0
1635634195.25,0,0,0.0,0.0,1.0
1635634195.71875,0,0,9.455801722882965,0.0,1.0
1635634196.1875,0,0,13.829189889317437,0.0,1.0
1635634196.65625,0,0,16.10844549496046,0.0,1.0
1635634197.125,0,0,14.485459914093529,0.0,1.0
1635634197.59375,0,0,0.0,0.0,1.0
1635634198.0625,0,0,20.644998062880404,0.0,1.0
1635634198.53125,0,0,19.580795444311317,0.0,1.0
1635634199.0,0,0,0.0,0.0,1.0
1635634199.46875,0,0,0.5964483074248552,0.0,1.0
1635634199.9375,0,0,110.94640609969836,0.0,1.0
1635634200.40625,0,0,0.0,0.0,1.0
1635634200.875,0,0,66.83478262121808,0.0,1.0
1635634201.34375,0,0,135.45584517028144,0.0,1.0
1635634201.8125,0,0,-71.55823886726088,0.0,1.0
1635634202.28125,0,0,70.38980055373689,0.0,1.0
1635634202.75,0,0,24.868973317374714,0.0,1.0
1635634203.21875,0,0,0.0,0.0,1.0
1635634203.6875,0,0,35.67704797457648,0.0,1.0
1635634204.15625,0,0,28.08934194509708,0.0,1.0
1635634204.625,0,0,0.0,0.0,1.0
1635634205.09375,0,0,23.107011188318815,0.0,1.0
1635634205.5625,0,0,0.0,0.0,1.0
1635634206.03125,0,0,126.71715978330708,0.0,1.0
1635634206.5,0,0,1.1692860118201174,0.0,1.0
1635634206.96875,0,0,50.82752206104566,0.0,1.0
1635634207.4375,0,0,0.0,0.0,1.0
1635634207.90625,0,0,19.157831632027673,0.0,1.0
1635634208.375,0,0,0.0,0.0,1.0
1635634208.84375,0,0,22.087266766034485,0.0,1.0
1635634209.3125,0,0,21.233630560488184,0.0,1.0
1635634209.78125,0,0,0.0,0.0,1.0
1635634210.25,0,0,19.89234120208078,0.0,1.0
1635634210.71875,0,0,24.199046853485157,0.0,1.0
1635634211.1875,0,0,0.0,0.0,1.0
1635634211.65625,0,0,24.14831287357778,0.0,1.0
1635634212.125,0,0,0.0,0.0,1.0
1635634212.59375,0,0,0.0,0.0,1.0
1635634213.0625,0,0,21.557861015441325,0.0,1.0
1635634213.53125,0,0,20.70759535031073,0.0,1.0
1635634214.0,0,0,0.0,0.0,1.0
1635634214.46875,0,0,19.935090602651936,0.0,1.0
1635634214.9375,0,0,16.609753942825844,0.0,1.0
1635634215.40625,0,0,0.0,0.0,1.0
1635634215.875,0,0,19.180535611747498,0.0,1.0
1635634216.34375,0,0,18.703165185192915,0.0,1.0
1635634216.8125,0,0,0.0,0.0,1.0
1635634217.28125,0,0,17.350425317850217,0.0,1.0
1635634217.75,0,0,16.524543604772656,0.0,1.0
1635634218.21875,0,0,0.0,0.0,1.0
1635634218.6875,0,0,13.599344819963001,0.0,1.0
1635634219.15625,0,0,0.0,0.0,1.0
1635634219.625,0,0,12.255764515600475,0.0,1.0
1635634220.09375,0,0,14.132202426260516,0.0,1.0
1635634220.5625,0,0,0.0,0.0,1.0
1635634221.03125,0,0,18.779200032150122,0.0,1.0
1635634221.5,0,0,14.671133948528285,0.0,1.0
1635634221.96875,0,0,0.0,0.0,1.0
1635634222.4375,0,0,16.297178618144148,0.0,1.0
1635634222.90625,0,0,0.0,0.0,1.0
1635634223.375,0,0,17.808434170673742,0.0,1.0
1635634223.84375,0,0,21.082123115901855,0.0,1.0
1635634224.3125,0,0,0.0,0.0,1.0
1635634224.78125,0,0,15.229033109980294,0.0,1.0
1635634225.25,0,0,0.0,0.0,1.0
1635634225.71875,0,0,0.0,0.0,1.0
1635634226.1875,0,0,18.144716909880042,0.0,1.0
1635634226.65625,0,0,0.0,0.0,1.0
1635634227.125,0,0,18.849565800111897,0.0,1.0
1635634227.59375,0,0,15.345867437438903,0.0,1.0
1635634228.0625,0,0,0.0,0.0,1.0
1635634228.53125,0,0,15.300939763215395,0.0,1.0
1635634229.0,0,0,21.236912801447954,0.0,1.0
1635634229.46875,0,0,0.0,0.0,1.0
1635634229.9375,0,0,18.13902389578445,0.0,1.0
1635634230.40625,0,0,0.0,0.0,1.0
1635634230.875,0,0,15.299624010481136,0.0,1.0
1635634231.34375,0,0,13.8285600944935,0.0,1.0
1635634231.8125,0,0,0.0,0.0,1.0
1635634232.28125,0,0,18.938053818289163,0.0,1.0
1635634232.75,0,0,0.0,0.0,1.0
1635634233.21875,0,0,0.0,0.0,1.0
1635634233.6875,0,0,16.68653988312518,0.0,1.0
1635634234.15625,0,0,0.0,0.0,1.0
1635634234.625,0,0,0.0,0.0,1.0
1635634235.09375,0,0,17.64339645300502,0.0,1.0
1635634235.5625,0,0,0.0,0.0,1.0
1635634236.03125,0,0,17.05911377286889,0.0,1.0
1635634236.5,0,0,19.118541034716056,0.0,1.0
1635634236.96875,0,0,0.0,0.0,1.0
1635634237.4375,0,0,16.199319106765923,0.0,1.0
1635634237.90625,0,0,15.205628102973455,0.0,1.0
1635634238.375,0,0,0.0,0.0,1.0
1635634238.84375,0,0,17.211425626918718,0.0,1.0
1635634239.3125,0,0,15.382245667193972,0.0,1.0
1635634239.78125,0,0,0.0,0.0,1.0
1635634240.25,0,0,16.491267365392194,0.0,1.0
1635634240.71875,0,0,0.0,0.0,1.0
1635634241.1875,0,0,16.948229429760897,0.0,1.0
1635634241.65625,0,0,10.698421331938622,0.0,1.0
1635634242.125,0,0,0.0,0.0,1.0
1635634242.59375,0,0,19.046974654020563,0.0,1.0
1635634243.0625,0,0,16.23019577045368,0.0,1.0
1635634243.53125,0,0,0.0,0.0,1.0
1635634244.0,0,0,13.277375920949135,0.0,1.0
1635634244.46875,0,0,0.0,0.0,1.0
1635634244.9375,0,0,0.0,0.0,1.0
1635634245.40625,0,0,18.032982767961002,0.0,1.0
1635634245.875,0,0,0.0,0.0,1.0
1635634246.34375,0,0,0.0,0.0,1.0
1635634246.8125,0,0,16.446878323549523,0.0,1.0
1635634247.28125,0,0,0.0,0.0,1.0
1635634247.75,0,0,17.300777025297442,0.0,1.0
1635634248.21875,0,0,19.133650029038037,0.0,1.0
1635634248.6875,0,0,0.0,0.0,1.0
1635634249.15625,0,0,19.019824558381547,0.0,1.0
1635634249.625,0,0,15.140838114924328,0.0,1.0
1635634250.09375,0,0,0.0,0.0,1.0
1635634250.5625,0,0,14.968380807969462,0.0,1.0
1635634251.03125,0,0,19.25927208907159,0.0,1.0
1635634251.5,0,0,0.0,0.0,1.0
1635634251.96875,0,0,16.5391193529268,0.0,1.0
1635634252.4375,0,0,15.50854070636484,0.0,1.0
1635634252.90625,0,0,0.0,0.0,1.0
1635634253.375,0,0,13.364917425888255,0.0,1.0
1635634253.84375,0,0,0.0,0.0,1.0
1635634254.3125,0,0,15.23104727807172,0.0,1.0
1635634254.78125,0,0,13.440912516647902,0.0,1.0
1635634255.25,0,0,18.513325574463632,0.0,1.0
1635634255.71875,0,0,0.0,0.0,1.0
1635634256.1875,0,0,-15.890722747818531,0.0,1.0
1635634256.65625,0,0,0.0,0.0,1.0
1635634257.125,0,0,0.0,0.0,1.0
1635634257.59375,0,0,-40.67403623918313,0.0,1.0
1635634258.0625,0,0,88.10447286182138,0.0,1.0
1635634258.53125,0,0,0.0,0.0,1.0
1635634259.0,0,0,-2.3349350056587386,0.0,1.0
1635634259.46875,0,0,0.0,0.0,1.0
1635634259.9375,0,0,24.380452031850112,0.0,1.0
1635634260.40625,0,0,19.117556864587492,0.0,1.0
1635634260.875,0,0,0.0,0.0,1.0
1635634261.34375,0,0,15.823066286639133,0.0,1.0
1635634261.8125,0,0,11.598928530892213,0.0,1.0
1635634262.28125,0,0,0.0,0.0,1.0
1635634262.75,0,0,15.880215501583734,0.0,1.0
1635634263.21875,0,0,19.68903934289828,0.0,1.0
1635634263.6875,0,0,0.0,0.0,1.0
1635634264.15625,0,0,19.814521136884643,0.0,1.0
1635634264.625,0,0,0.0,0.0,1.0
1635634265.09375,0,0,7.41774346510343,0.0,1.0
1635634265.5625,0,0,17.48247357024593,0.0,1.0
1635634266.03125,0,0,0.0,0.0,1.0
1635634266.5,0,0,27.09193058223628,0.0,1.0
1635634266.96875,0,0,-10.289087726314643,0.0,1.0
1635634267.4375,0,0,0.0,0.0,1.0
1635634267.90625,0,0,102.23900267583889,0.0,1.0
1635634268.375,0,0,-64.25676766143295,0.0,1.0
1635634268.84375,0,0,43.42294013913746,0.0,1.0
1635634269.3125,0,0,35.191490740235004,0.0,1.0
1635634269.78125,0,0,10.537397828111196,0.0,1.0
1635634270.25,0,0,13.81322027703014,0.0,1.0
1635634270.71875,0,0,0.0,0.0,1.0
1635634271.1875,0,0,25.51460747151667,0.0,1.0
1635634271.65625,0,0,21.389170640476227,0.0,1.0
1635634272.125,0,0,17.19727533982547,0.0,1.0
1635634272.59375,0,0,0.0,0.0,1.0
1635634273.0625,0,0,16.85560708242044,0.0,1.0
1635634273.53125,0,0,15.229757580855068,0.0,1.0
1635634274.0,0,0,0.0,0.0,1.0
1635634274.46875,0,0,12.176616609828113,0.0,1.0
1635634274.9375,0,0,0.0,0.0,1.0
1635634275.40625,0,0,17.4004574437853,0.0,1.0
1635634275.875,0,0,16.55832455787781,0.0,1.0
1635634276.34375,0,0,0.0,0.0,1.0
1635634276.8125,0,0,13.93994458926995,0.0,1.0
1635634277.28125,0,0,11.782419347457038,0.0,1.0
1635634277.75,0,0,11.940558081754157,0.0,1.0
1635634278.21875,0,0,10.15348337649266,0.0,1.0
1635634278.6875,0,0,14.186614920579704,0.0,1.0
1635634279.15625,0,0,0.0,0.0,1.0
1635634279.625,0,0,15.976408898225683,0.0,1.0
1635634280.09375,0,0,0.0,0.0,1.0
1635634280.5625,0,0,0.0,0.0,1.0
1635634281.03125,0,0,13.574675309309557,0.0,1.0
1635634281.5,0,0,12.647300381990915,0.0,1.0
1635634281.96875,0,0,0.0,0.0,1.0
1635634282.4375,0,0,11.364360521874294,0.0,1.0
1635634282.90625,0,0,0.0,0.0,1.0
1635634283.375,0,0,8.368367898634432,0.0,1.0
1635634283.84375,0,0,0.0,0.0,1.0
1635634284.3125,0,0,0.0,0.0,1.0
1635634284.78125,0,0,10.764862143874867,0.0,1.0
1635634285.25,0,0,0.0,0.0,1.0
1635634285.71875,0,0,8.190617945173042,0.0,1.0
1635634286.1875,0,0,11.267026965905368,0.0,1.0
1635634286.65625,0,0,0.0,0.0,1.0
1635634287.125,0,0,11.486552042432256,0.0,1.0
1635634287.59375,0,0,0.0,0.0,1.0
1635634288.0625,0,0,0.0,0.0,1.0
1635634288.53125,0,0,15.197745208041084,0.0,1.0
1635634289.0,0,0,18.671358684867823,0.0,1.0
1635634289.46875,0,0,0.0,0.0,1.0
1635634289.9375,0,0,13.039482194718165,0.0,1.0
1635634290.40625,0,0,0.0,0.0,1.0
1635634290.875,0,0,11.62889267976315,0.0,1.0
1635634291.34375,0,0,10.558925858468923,0.0,1.0
1635634291.8125,0,0,0.0,0.0,1.0
1635634292.28125,0,0,12.589678320092936,0.0,1.0
1635634292.75,0,0,9.981691721882425,0.0,1.0
1635634293.21875,0,0,10.053738388932329,0.0,1.0
1635634293.6875,0,0,10.416291219875491,0.0,1.0
1635634294.15625,0,0,0.0,0.0,1.0
1635634294.625,0,0,11.869236545556129,0.0,1.0
1635634295.09375,0,0,17.12702786355106,0.0,1.0
1635634295.5625,0,0,0.0,0.0,1.0
1635634296.03125,0,0,10.878612297214136,0.0,1.0
1635634296.5,0,0,10.187081341654634,0.0,1.0
1635634296.96875,0,0,0.0,0.0,1.0
1635634297.4375,0,0,14.299776647278232,0.0,1.0
1635634297.90625,0,0,0.0,0.0,1.0
1635634298.375,0,0,10.449788700882154,0.0,1.0
1635634298.84375,0,0,0.0,0.0,1.0
1635634299.3125,0,0,12.790237865502489,0.0,1.0
1635634299.78125,0,0,16.039910749218308,0.0,1.0
1635634300.25,0,0,0.0,0.0,1.0
1635634300.71875,0,0,12.234052691989463,0.0,1.0
1635634301.1875,0,0,0.0,0.0,1.0
1635634301.65625,0,0,14.317677497199751,0.0,1.0
1635634302.125,0,0,0.0,0.0,1.0
1635634302.59375,0,0,14.129029787072762,0.0,1.0
1635634303.0625,0,0,17.000768819879703,0.0,1.0
1635634303.53125,0,0,0.0,0.0,1.0
1635634304.0,0,0,16.086997113382765,0.0,1.0
1635634304.46875,0,0,11.549939146567803,0.0,1.0
1635634304.9375,0,0,11.105902384208894,0.0,1.0
1635634305.40625,0,0,17.840138758990445,0.0,1.0
1635634305.875,0,0,0.0,0.0,1.0
1635634306.34375,0,0,0.0,0.0,1.0
1635634306.8125,0,0,16.60367938146004,0.0,1.0
1635634307.28125,0,0,0.0,0.0,1.0
1635634307.75,0,0,16.282244048681424,0.0,1.0
1635634308.21875,0,0,15.034614700030238,0.0,1.0
1635634308.6875,0,0,0.0,0.0,1.0
1635634309.15625,0,0,12.334970779521845,0.0,1.0
1635634309.625,0,0,14.370812862341749,0.0,1.0
1635634310.09375,0,0,0.0,0.0,1.0
1635634310.5625,0,0,18.26517700245737,0.0,1.0
1635634311.03125,0,0,0.0,0.0,1.0
1635634311.5,0,0,11.681811606075597,0.0,1.0
1635634311.96875,0,0,11.53927951240857,0.0,1.0
1635634312.4375,0,0,0.0,0.0,1.0
1635634312.90625,0,0,9.32140407084955,0.0,1.0
1635634313.375,0,0,12.666016516269465,0.0,1.0
1635634313.84375,0,0,0.0,0.0,1.0
1635634314.3125,0,0,12.203871213930993,0.0,1.0
1635634314.78125,0,0,0.0,0.0,1.0
1635634315.25,0,0,12.832382186107118,0.0,1.0
1635634315.71875,0,0,19.46376423463204,0.0,1.0
1635634316.1875,0,0,0.0,0.0,1.0
1635634316.65625,0,0,29.68775497924942,0.0,1.0
1635634317.125,0,0,-6.177589304813336,0.0,1.0
1635634317.59375,0,0,22.678274806166474,0.0,1.0
1635634318.0625,0,0,0.0,0.0,1.0
1635634318.53125,0,0,10.083483605670835,0.0,1.0
1635634319.0,0,0,13.647024989786,0.0,1.0
1635634319.46875,0,0,0.0,0.0,1.0
1635634319.9375,0,0,7.229445375669034,0.0,1.0
1635634320.40625,0,0,0.0,0.0,1.0
1635634320.875,0,0,14.372352411938104,0.0,1.0
1635634321.34375,0,0,5.59318476231938,0.0,1.0
1635634321.8125,0,0,6.391513741096462,0.0,1.0
1635634322.28125,0,0,0.0,0.0,1.0
1635634322.75,0,0,91.50241707981685,0.0,1.0
1635634323.21875,0,0,0.0,0.0,1.0
1635634323.6875,0,0,43.697462264257034,0.0,1.0
1635634324.15625,0,0,0.0,0.0,1.0
1635634324.625,0,0,0.0,0.0,1.0
1635634325.09375,0,0,85.64426610745876,0.0,1.0
1635634325.5625,0,0,-18.802357627258466,0.0,1.0
1635634326.03125,0,0,39.0104001715432,0.0,1.0
1635634326.5,0,0,44.82264820679908,0.0,1.0
1635634326.96875,0,0,13.367504088095773,0.0,1.0
1635634327.4375,0,0,0.0,0.0,1.0
1635634327.90625,0,0,34.61473879834617,0.0,1.0
1635634328.375,0,0,33.08963140274735,0.0,1.0
1635634328.84375,0,0,0.0,0.0,1.0
1635634329.3125,0,0,30.332929303177,0.0,1.0
1635634329.78125,0,0,26.900112334748016,0.0,1.0
1635634330.25,0,0,0.0,0.0,1.0
1635634330.71875,0,0,23.624832568023205,0.0,1.0
1635634331.1875,0,0,27.127575813496616,0.0,1.0
1635634331.65625,0,0,0.0,0.0,1.0
1635634332.125,0,0,22.943248453332874,0.0,1.0
1635634332.59375,0,0,0.0,0.0,1.0
1635634333.0625,0,0,0.0,0.0,1.0
1635634333.53125,0,0,23.11296893123369,0.0,1.0
1635634334.0,0,0,0.0,0.0,1.0
1635634334.46875,0,0,17.733759191852926,0.0,1.0
1635634334.9375,0,0,24.21548703123994,0.0,1.0
1635634335.40625,0,0,0.0,0.0,1.0
1635634335.875,0,0,22.229771716354183,0.0,1.0
1635634336.34375,0,0,0.0,0.0,1.0
1635634336.8125,0,0,19.22999342135987,0.0,1.0
1635634337.28125,0,0,0.0,0.0,1.0
1635634337.75,0,0,20.468862631627605,0.0,1.0
1635634338.21875,0,0,11.504077573934437,0.0,1.0
1635634338.6875,0,0,0.0,0.0,1.0
1635634339.15625,0,0,0.0,0.0,1.0
1635634339.625,0,0,17.999092043173814,0.0,1.0
1635634340.09375,0,0,0.0,0.0,1.0
1635634340.5625,0,0,28.4619592924282,0.0,1.0
1635634341.03125,0,0,5.555192649645488,0.0,1.0
1635634341.5,0,0,0.0,0.0,1.0
1635634341.96875,0,0,23.455394191438184,0.0,1.0
1635634342.4375,0,0,23.017890424204463,0.0,1.0
1635634342.90625,0,0,0.0,0.0,1.0
1635634343.375,0,0,8.160856157858882,0.0,1.0
1635634343.84375,0,0,16.818602110456432,0.0,1.0
1635634344.3125,0,0,0.0,0.0,1.0
1635634344.78125,0,0,13.246188074865797,0.0,1.0
1635634345.25,0,0,0.0,0.0,1.0
1635634345.71875,0,0,15.99341983835169,0.0,1.0
1635634346.1875,0,0,2.3615398438998496,0.0,1.0
1635634346.65625,0,0,0.0,0.0,1.0
1635634347.125,0,0,9.452155641066017,0.0,1.0
1635634347.59375,0,0,21.90089338035115,0.0,1.0
1635634348.0625,0,0,0.0,0.0,1.0
1635634348.53125,0,0,6.192800542838784,0.0,1.0
1635634349.0,0,0,15.608984195843073,0.0,1.0
1635634349.46875,0,0,0.0,0.0,1.0
1635634349.9375,0,0,17.09706572666795,0.0,1.0
1635634350.40625,0,0,13.090898852332751,0.0,1.0
1635634350.875,0,0,10.045372661585052,0.0,1.0
1635634351.34375,0,0,0.0,0.0,1.0
1635634351.8125,0,0,21.798316270083,0.0,1.0
1635634352.28125,0,0,15.354937887452344,0.0,1.0
1635634352.75,0,0,0.0,0.0,1.0
1635634353.21875,0,0,5.647354209459121,0.0,1.0
1635634353.6875,0,0,12.882005643050936,0.0,1.0
1635634354.15625,0,0,0.0,0.0,1.0
1635634354.625,0,0,0.0,0.0,1.0
1635634355.09375,0,0,14.095331531125124,0.0,1.0
1635634355.5625,0,0,10.76258803731465,0.0,1.0
1635634356.03125,0,0,0.0,0.0,1.0
1635634356.5,0,0,14.64963356663724,0.0,1.0
1635634356.96875,0,0,15.00726225040746,0.0,1.0
1635634357.4375,0,0,0.0,0.0,1.0
1635634357.90625,0,0,8.187629680853988,0.0,1.0
1635634358.375,0,0,7.031855841965845,0.0,1.0
1635634358.84375,0,0,0.0,0.0,1.0
1635634359.3125,0,0,18.075147452973223,0.0,1.0
1635634359.78125,0,0,24.88994049529356,0.0,1.0
1635634360.25,0,0,0.0,0.0,1.0
1635634360.71875,0,0,14.686497230390128,0.0,1.0
1635634361.1875,0,0,13.274675983229036,0.0,1.0
1635634361.65625,0,0,0.0,0.0,1.0
1635634362.125,0,0,14.696888799980684,0.0,1.0
1635634362.59375,0,0,17.2603880191897,0.0,1.0
1635634363.0625,0,0,0.0,0.0,1.0
1635634363.53125,0,0,14.051059816834817,0.0,1.0
1635634364.0,0,0,9.581639541110563,0.0,1.0
1635634364.46875,0,0,0.0,0.0,1.0
1635634364.9375,0,0,14.874967789342055,0.0,1.0
1635634365.40625,0,0,17.264580143535575,0.0,1.0
1635634365.875,0,0,0.0,0.0,1.0
1635634366.34375,0,0,14.614791891039191,0.0,1.0
1635634366.8125,0,0,5.372324439355368,0.0,1.0
1635634367.28125,0,0,1.9094766633973932,0.0,1.0
1635634367.75,0,0,21.28035648623526,0.0,1.0
1635634368.21875,0,0,0.0,0.0,1.0
1635634368.6875,0,0,12.165076806371374,0.0,1.0
1635634369.15625,0,0,13.817992267745389,0.0,1.0
1635634369.625,0,0,5.730771891415385,0.0,1.0
1635634370.09375,0,0,0.48969535280714865,0.0,1.0
1635634370.5625,0,0,18.10387716560693,0.0,1.0
1635634371.03125,0,0,0.0,0.0,1.0
1635634371.5,0,0,11.48856410573894,0.0,1.0
1635634371.96875,0,0,5.7106515611977455,0.0,1.0
1635634372.4375,0,0,15.239400324659341,0.0,1.0
1635634372.90625,0,0,0.0,0.0,1.0
1635634373.375,0,0,16.731067316071442,0.0,1.0
1635634373.84375,0,0,0.0,0.0,1.0
1635634374.3125,0,0,0.0,0.0,1.0
1635634374.78125,0,0,122.97628941600438,0.0,1.0
1635634375.25,0,0,0.0,0.0,1.0
1635634375.71875,0,0,63.16589768827353,0.0,1.0
1635634376.1875,0,0,18.76308090008402,0.0,1.0
1635634376.65625,0,0,0.0,0.0,1.0
1635634377.125,0,0,11.138529399057234,0.0,1.0
1635634377.59375,0,0,11.031394904800239,0.0,1.0
1635634378.0625,0,0,21.078304646725933,0.0,1.0
1635634378.53125,0,0,0.0,0.0,1.0
1635634379.0,0,0,16.567153352346864,0.0,1.0
1635634379.46875,0,0,0.0,0.0,1.0
1635634379.9375,0,0,15.278093966310756,0.0,1.0
1635634380.40625,0,0,9.40146397892829,0.0,1.0
1635634380.875,0,0,13.752762980437955,0.0,1.0
1635634381.34375,0,0,0.0,0.0,1.0
1635634381.8125,0,0,11.507288231050197,0.0,1.0
1635634382.28125,0,0,0.0,0.0,1.0
1635634382.75,0,0,17.65983861478413,0.0,1.0
1635634383.21875,0,0,4.424216532609457,0.0,1.0
1635634383.6875,0,0,0.0,0.0,1.0
1635634384.15625,0,0,13.611472109169352,0.0,1.0
1635634384.625,0,0,27.74421374333271,0.0,1.0
1635634385.09375,0,0,-4.912952749177653,0.0,1.0
1635634385.5625,0,0,17.976353475776136,0.0,1.0
1635634386.03125,0,0,36.67649811779577,0.0,1.0
1635634386.5,0,0,28.345159565449812,0.0,1.0
1635634386.96875,0,0,75.08925292124701,0.0,1.0
1635634387.4375,0,0,0.0,0.0,1.0
1635634387.90625,0,0,7.657777032063117,0.0,1.0
1635634388.375,0,0,13.78545215963546,0.0,1.0
1635634388.84375,0,0,13.62101005469694,0.0,1.0
1635634389.3125,0,0,13.262537543631185,0.0,1.0
1635634389.78125,0,0,0.0,0.0,1.0
1635634390.25,0,0,15.375059714867177,0.0,1.0
1635634390.71875,0,0,11.671654718191268,0.0,1.0
1635634391.1875,0,0,0.0,0.0,1.0
1635634391.65625,0,0,14.480876995868117,0.0,1.0
1635634392.125,0,0,12.551560694082363,0.0,1.0
1635634392.59375,0,0,14.19332470228727,0.0,1.0
1635634393.0625,0,0,0.0,0.0,1.0
1635634393.53125,0,0,10.704428616360252,0.0,1.0
1635634394.0,0,0,7.890735147407033,0.0,1.0
1635634394.46875,0,0,0.0,0.0,1.0
1635634394.9375,0,0,15.79224307351614,0.0,1.0
1635634395.40625,0,0,6.325850696683894,0.0,1.0
1635634395.875,0,0,0.0,0.0,1.0
1635634396.34375,0,0,9.327978206219733,0.0,1.0
1635634396.8125,0,0,15.371968664402752,0.0,1.0
1635634397.28125,0,0,0.0,0.0,1.0
1635634397.75,0,0,7.3840056809892225,0.0,1.0
1635634398.21875,0,0,11.994692973182854,0.0,1.0
1635634398.6875,0,0,0.0,0.0,1.0
1635634399.15625,0,0,15.178834334163065,0.0,1.0
1635634399.625,0,0,2.7768452391100142,0.0,1.0
1635634400.09375,0,0,0.0,0.0,1.0
1635634400.5625,0,0,16.80691155484464,0.0,1.0
1635634401.03125,0,0,0.6689629462613956,0.0,1.0
1635634401.5,0,0,0.0,0.0,1.0
1635634401.96875,0,0,8.950852142540876,0.0,1.0
1635634402.4375,0,0,0.0,0.0,1.0
1635634402.90625,0,0,0.0,0.0,1.0
1635634403.375,0,0,4.8640195334788885,0.0,1.0
1635634403.84375,0,0,0.0,0.0,1.0
1635634404.3125,0,0,9.920517981226702,0.0,1.0
1635634404.78125,0,0,10.627699517355065,0.0,1.0
1635634405.25,0,0,8.528672087620153,0.0,1.0
1635634405.71875,0,0,0.0,0.0,1.0
1635634406.1875,0,0,16.64125911081899,0.0,1.0
1635634406.65625,0,0,9.128897918208091,0.0,1.0
1635634407.125,0,0,0.0,0.0,1.0
1635634407.59375,0,0,12.546386389529534,0.0,1.0
1635634408.0625,0,0,0.0,0.0,1.0
1635634408.53125,0,0,13.208805678551101,0.0,1.0
1635634409.0,0,0,8.628108997144247,0.0,1.0
1635634409.46875,0,0,0.0,0.0,1.0
1635634409.9375,0,0,10.38353797752008,0.0,1.0
1635634410.40625,0,0,15.984341293075234,0.0,1.0
1635634410.875,0,0,0.0,0.0,1.0
1635634411.34375,0,0,5.827943984306542,0.0,1.0
1635634411.8125,0,0,14.744434859508539,0.0,1.0
1635634412.28125,0,0,0.0,0.0,1.0
1635634412.75,0,0,10.780742882166317,0.0,1.0
1635634413.21875,0,0,0.0,0.0,1.0
1635634413.6875,0,0,0.0,0.0,1.0
1635634414.15625,0,0,10.103028458814794,0.0,1.0
1635634414.625,0,0,12.09211430444089,0.0,1.0
1635634415.09375,0,0,12.85380018109143,0.0,1.0
1635634415.5625,0,0,10.655101866634242,0.0,1.0
1635634416.03125,0,0,0.0,0.0,1.0
1635634416.5,0,0,16.732095787418157,0.0,1.0
1635634416.96875,0,0,9.526544289669902,0.0,1.0
1635634417.4375,0,0,0.0,0.0,1.0
1635634417.90625,0,0,13.9501893733612,0.0,1.0
1635634418.375,0,0,12.646116284257998,0.0,1.0
1635634418.84375,0,0,0.0,0.0,1.0
1635634419.3125,0,0,8.39907799709814,0.0,1.0
1635634419.78125,0,0,0.0,0.0,1.0
1635634420.25,0,0,18.99046188831302,0.0,1.0
1635634420.71875,0,0,3.705277413076147,0.0,1.0
1635634421.1875,0,0,0.0,0.0,1.0
1635634421.65625,0,0,12.264063314640033,0.0,1.0
1635634422.125,0,0,13.858643049821975,0.0,1.0
1635634422.59375,0,0,0.0,0.0,1.0
1635634423.0625,0,0,0.0,0.0,1.0
1635634423.53125,0,0,14.0507584026862,0.0,1.0
1635634424.0,0,0,0.0,0.0,1.0
1635634424.46875,0,0,14.314626408755233,0.0,1.0
1635634424.9375,0,0,5.696757669802173,0.0,1.0
1635634425.40625,0,0,7.43322369953134,0.0,1.0
1635634425.875,0,0,5.995860105419528,0.0,1.0
1635634426.34375,0,0,12.402743200266602,0.0,1.0
1635634426.8125,0,0,0.0,0.0,1.0
1635634427.28125,0,0,11.07210693342285,0.0,1.0
1635634427.75,0,0,7.040922862386469,0.0,1.0
1635634428.21875,0,0,6.848867359704023,0.0,1.0
1635634428.6875,0,0,3.780499406049693,0.0,1.0
1635634429.15625,0,0,11.34291658108311,0.0,1.0
1635634429.625,0,0,0.0,0.0,1.0
1635634430.09375,0,0,8.012657208641462,0.0,1.0
1635634430.5625,0,0,12.235946942957355,0.0,1.0
1635634431.03125,0,0,0.0,0.0,1.0
1635634431.5,0,0,9.615850428758332,0.0,1.0
1635634431.96875,0,0,0.0,0.0,1.0
1635634432.4375,0,0,41.34045884776645,0.0,1.0
1635634432.90625,0,0,0.0,0.0,1.0
1635634433.375,0,0,51.76481755212796,0.0,1.0
1635634433.84375,0,0,0.0,0.0,1.0
1635634434.3125,0,0,26.722066931850552,0.0,1.0
1635634434.78125,0,0,0.0,0.0,1.0
1635634435.25,0,0,20.06513533359009,0.0,1.0
1635634435.71875,0,0,8.63108213714647,0.0,1.0
1635634436.1875,0,0,9.433492315155299,0.0,1.0
1635634436.65625,0,0,0.0,0.0,1.0
1635634437.125,0,0,17.189064101688057,0.0,1.0
1635634437.59375,0,0,11.113305820888671,0.0,1.0
1635634438.0625,0,0,0.0,0.0,1.0
1635634438.53125,0,0,10.697569777758606,0.0,1.0
1635634439.0,0,0,9.242498315722836,0.0,1.0
1635634439.46875,0,0,0.0,0.0,1.0
1635634439.9375,0,0,0.0,0.0,1.0
1635634440.40625,0,0,19.798495130296025,0.0,1.0
1635634440.875,0,0,0.0,0.0,1.0
1635634441.34375,0,0,24.092476556533818,0.0,1.0
1635634441.8125,0,0,10.141969195099644,0.0,1.0
1635634442.28125,0,0,0.0,0.0,1.0
1635634442.75,0,0,16.302576485791192,0.0,1.0
1635634443.21875,0,0,0.0,0.0,1.0
1635634443.6875,0,0,14.201417392663718,0.0,1.0
1635634444.15625,0,0,0.0,0.0,1.0
1635634444.625,0,0,16.48279471478588,0.0,1.0
1635634445.09375,0,0,0.0,0.0,1.0
1635634445.5625,0,0,14.414382147293054,0.0,1.0
1635634446.03125,0,0,15.144246045184182,0.0,1.0
1635634446.5,0,0,15.22041905350106,0.0,1.0
1635634446.96875,0,0,0.0,0.0,1.0
1635634447.4375,0,0,0.0,0.0,1.0
1635634447.90625,0,0,10.495074362633328,0.0,1.0
1635634448.375,0,0,18.02982046033012,0.0,1.0
1635634448.84375,0,0,0.0,0.0,1.0
1635634449.3125,0,0,21.012589103675143,0.0,1.0
1635634449.78125,0,0,11.824470200281748,0.0,1.0
1635634450.25,0,0,0.0,0.0,1.0
1635634450.71875,0,0,19.529683139719467,0.0,1.0
1635634451.1875,0,0,11.499327804838458,0.0,1.0
1635634451.65625,0,0,0.0,0.0,1.0
1635634452.125,0,0,7.479171282914258,0.0,1.0
1635634452.59375,0,0,0.0,0.0,1.0
1635634453.0625,0,0,0.0,0.0,1.0
1635634453.53125,0,0,1.6907234440175027,0.0,1.0
1635634454.0,0,0,10.753516318999862,0.0,1.0
1635634454.46875,0,0,0.0,0.0,1.0
1635634454.9375,0,0,25.734692372844858,0.0,1.0
1635634455.40625,0,0,0.0,0.0,1.0
1635634455.875,0,0,0.0,0.0,1.0
1635634456.34375,0,0,11.149207725935721,0.0,1.0
1635634456.8125,0,0,25.40199530610818,0.0,1.0
1635634457.28125,0,0,0.0,0.0,1.0
1635634457.75,0,0,3.8397673137038955,0.0,1.0
1635634458.21875,0,0,13.388690961106049,0.0,1.0
1635634458.6875,0,0,0.0,0.0,1.0
1635634459.15625,0,0,17.917220330870638,0.0,1.0
1635634459.625,0,0,11.9980246268259,0.0,1.0
1635634460.09375,0,0,12.511536394685521,0.0,1.0
1635634460.5625,0,0,0.0,0.0,1.0
1635634461.03125,0,0,27.090745025357986,0.0,1.0
1635634461.5,0,0,4.768796861714497,0.0,1.0
1635634461.96875,0,0,0.0,0.0,1.0
1635634462.4375,0,0,22.123925475622535,0.0,1.0
1635634462.90625,0,0,7.736164327325599,0.0,1.0
1635634463.375,0,0,0.0,0.0,1.0
1635634463.84375,0,0,4.85522392332073,0.0,1.0
1635634464.3125,0,0,20.166587522715087,0.0,1.0
1635634464.78125,0,0,21.06883768502802,0.0,1.0
1635634465.25,0,0,2.0614610959850035,0.0,1.0
1635634465.71875,0,0,11.82041950447258,0.0,1.0
1635634466.1875,0,0,0.0,0.0,1.0
1635634466.65625,0,0,25.96603275706752,0.0,1.0
1635634467.125,0,0,-2.0082410642682906,0.0,1.0
1635634467.59375,0,0,11.596093033733744,0.0,1.0
1635634468.0625,0,0,0.0,0.0,1.0
1635634468.53125,0,0,24.143181927966317,0.0,1.0
1635634469.0,0,0,0.0,0.0,1.0
1635634469.46875,0,0,0.0,0.0,1.0
1635634469.9375,0,0,12.158091682328624,0.0,1.0
1635634470.40625,0,0,21.25089883562112,0.0,1.0
1635634470.875,0,0,-0.16927850993408097,0.0,1.0
1635634471.34375,0,0,4.08469443390045,0.0,1.0
1635634471.8125,0,0,2.6178951814640747,0.0,1.0
1635634472.28125,0,0,0.0,0.0,1.0
1635634472.75,0,0,13.696605305145775,0.0,1.0
1635634473.21875,0,0,3.786120932679782,0.0,1.0
1635634473.6875,0,0,10.793899562302487,0.0,1.0
1635634474.15625,0,0,0.0,0.0,1.0
1635634474.625,0,0,26.206835593655953,0.0,1.0
1635634475.09375,0,0,0.0,0.0,1.0
1635634475.5625,0,0,2.0696337716103677,0.0,1.0
1635634476.03125,0,0,15.797979032236414,0.0,1.0
1635634476.5,0,0,26.45082378801799,0.0,1.0
1635634476.96875,0,0,0.0,0.0,1.0
1635634477.4375,0,0,9.160564439603531,0.0,1.0
1635634477.90625,0,0,14.784790855758107,0.0,1.0
1635634478.375,0,0,0.0,0.0,1.0
1635634478.84375,0,0,21.987528289024333,0.0,1.0
1635634479.3125,0,0,10.211810649408575,0.0,1.0
1635634479.78125,0,0,0.0,0.0,1.0
1635634480.25,0,0,20.51571045524946,0.0,1.0
1635634480.71875,0,0,12.776181361504698,0.0,1.0
1635634481.1875,0,0,0.0,0.0,1.0
1635634481.65625,0,0,6.575933322793817,0.0,1.0
1635634482.125,0,0,12.844084362840112,0.0,1.0
1635634482.59375,0,0,0.0,0.0,1.0
1635634483.0625,0,0,0.0,0.0,1.0
1635634483.53125,0,0,11.831126251987113,0.0,1.0
1635634484.0,0,0,0.0,0.0,1.0
1635634484.46875,0,0,25.738970309052903,0.0,1.0
1635634484.9375,0,0,2.8603230620513274,0.0,1.0
1635634485.40625,0,0,0.0,0.0,1.0
1635634485.875,0,0,11.260492540487968,0.0,1.0
1635634486.34375,0,0,24.049874278313972,0.0,1.0
1635634486.8125,0,0,0.0,0.0,1.0
1635634487.28125,0,0,4.877901011387338,0.0,1.0
1635634487.75,0,0,10.802332900358152,0.0,1.0
1635634488.21875,0,0,0.0,0.0,1.0
1635634488.6875,0,0,0.0,0.0,1.0
1635634489.15625,0,0,7.327387228388376,0.0,1.0
1635634489.625,0,0,0.0,0.0,1.0
1635634490.09375,0,0,16.092854953930082,0.0,1.0
1635634490.5625,0,0,11.428185340252378,0.0,1.0
1635634491.03125,0,0,-1.4499814606512695,0.0,1.0
1635634491.5,0,0,0.0,0.0,1.0
1635634491.96875,0,0,0.0,0.0,1.0
1635634492.4375,0,0,11.065126761312689,0.0,1.0
1635634492.90625,0,0,-1.3107137924004317,0.0,1.0
1635634493.375,0,0,0.0,0.0,1.0
1635634493.84375,0,0,35.08612075735921,0.0,1.0
1635634494.3125,0,0,-19.61640346921375,0.0,1.0
1635634494.78125,0,0,0.0,0.0,1.0
1635634495.25,0,0,37.76254901386361,0.0,1.0
1635634495.71875,0,0,89.99365178945598,0.0,1.0
1635634496.1875,0,0,-8.80034575060474,0.0,1.0
1635634496.65625,0,0,0.0,0.0,1.0
1635634497.125,0,0,36.62145781888381,0.0,1.0
1635634497.59375,0,0,0.0,0.0,1.0
1635634498.0625,0,0,9.31694515260116,0.0,1.0
1635634498.53125,0,0,4.248163072907227,0.0,1.0
1635634499.0,0,0,20.4892182615819,0.0,1.0
1635634499.46875,0,0,27.12612300617072,0.0,1.0
1635634499.9375,0,0,0.0,0.0,1.0
1635634500.40625,0,0,19.02753170637597,0.0,1.0
1635634500.875,0,0,36.52367727341084,0.0,1.0
1635634501.34375,0,0,0.0,0.0,1.0
1635634501.8125,0,0,20.871785206631206,0.0,1.0
1635634502.28125,0,0,-5.262344951292813,0.0,1.0
1635634502.75,0,0,16.36924933834763,0.0,1.0
1635634503.21875,0,0,16.203826213098615,0.0,1.0
1635634503.6875,0,0,0.0,0.0,1.0
1635634504.15625,0,0,6.036565718462246,0.0,1.0
1635634504.625,0,0,3.223676146270113,0.0,1.0
1635634505.09375,0,0,14.300093286286204,0.0,1.0
1635634505.5625,0,0,0.0,0.0,1.0
1635634506.03125,0,0,7.8362910277813675,0.0,1.0
1635634506.5,0,0,7.1882409091004975,0.0,1.0
1635634506.96875,0,0,8.670488853263656,0.0,1.0
1635634507.4375,0,0,0.0,0.0,1.0
1635634507.90625,0,0,10.673501769646187,0.0,1.0
1635634508.375,0,0,13.457825364231013,0.0,1.0
1635634508.84375,0,0,0.0,0.0,1.0
1635634509.3125,0,0,15.655639837968769,0.0,1.0
1635634509.78125,0,0,18.236087589334424,0.0,1.0
1635634510.25,0,0,16.485199065933283,0.0,1.0
1635634510.71875,0,0,0.0,0.0,1.0
1635634511.1875,0,0,21.949529430456977,0.0,1.0
1635634511.65625,0,0,21.354050083860905,0.0,1.0
1635634512.125,0,0,0.0,0.0,1.0
1635634512.59375,0,0,29.15299354150842,0.0,1.0
1635634513.0625,0,0,27.20011956052439,0.0,1.0
1635634513.53125,0,0,0.0,0.0,1.0
1635634514.0,0,0,17.898429804714162,0.0,1.0
1635634514.46875,0,0,0.0,0.0,1.0
1635634514.9375,0,0,0.0,0.0,1.0
1635634515.40625,0,0,24.75147239875149,0.0,1.0
1635634515.875,0,0,0.0,0.0,1.0
1635634516.34375,0,0,20.456016084713426,0.0,1.0
1635634516.8125,0,0,16.12159249685895,0.0,1.0
1635634517.28125,0,0,0.0,0.0,1.0
1635634517.75,0,0,13.557703088865917,0.0,1.0
1635634518.21875,0,0,0.0,0.0,1.0
1635634518.6875,0,0,11.899936008204914,0.0,1.0
1635634519.15625,0,0,16.254863305127003,0.0,1.0
1635634519.625,0,0,0.0,0.0,1.0
1635634520.09375,0,0,11.268384309841483,0.0,1.0
1635634520.5625,0,0,22.482299420906177,0.0,1.0
1635634521.03125,0,0,15.943694342014687,0.0,1.0
1635634521.5,0,0,0.0,0.0,1.0
1635634521.96875,0,0,17.23234920341719,0.0,1.0
1635634522.4375,0,0,0.0,0.0,1.0
1635634522.90625,0,0,14.227275439078378,0.0,1.0
1635634523.375,0,0,19.655340685625394,0.0,1.0
1635634523.84375,0,0,0.0,0.0,1.0
1635634524.3125,0,0,16.701492842117606,0.0,1.0
1635634524.78125,0,0,14.185324457314294,0.0,1.0
1635634525.25,0,0,0.0,0.0,1.0
1635634525.71875,0,0,13.099183191368109,0.0,1.0
1635634526.1875,0,0,0.0,0.0,1.0
1635634526.65625,0,0,0.0,0.0,1.0
1635634527.125,0,0,13.933649810453694,0.0,1.0
1635634527.59375,0,0,15.161854900386722,0.0,1.0
1635634528.0625,0,0,0.0,0.0,1.0
1635634528.53125,0,0,12.690988155486751,0.0,1.0
1635634529.0,0,0,12.308783631003099,0.0,1.0
1635634529.46875,0,0,0.0,0.0,1.0
1635634529.9375,0,0,13.557746125809759,0.0,1.0
1635634530.40625,0,0,9.085604289392444,0.0,1.0
1635634530.875,0,0,0.0,0.0,1.0
1635634531.34375,0,0,12.400076573491566,0.0,1.0
1635634531.8125,0,0,7.021860318090742,0.0,1.0
1635634532.28125,0,0,0.0,0.0,1.0
1635634532.75,0,0,17.90854577723861,0.0,1.0
1635634533.21875,0,0,0.0,0.0,1.0
1635634533.6875,0,0,12.967449513469079,0.0,1.0
1635634534.15625,0,0,0.0,0.0,1.0
1635634534.625,0,0,9.567267831247893,0.0,1.0
1635634535.09375,0,0,9.505407136670433,0.0,1.0
1635634535.5625,0,0,7.952497306854817,0.0,1.0
1635634536.03125,0,0,5.56136995867952,0.0,1.0
1635634536.5,0,0,8.407693752881817,0.0,1.0
1635634536.96875,0,0,0.0,0.0,1.0
1635634537.4375,0,0,12.766630657866074,0.0,1.0
1635634537.90625,0,0,0.0,0.0,1.0
1635634538.375,0,0,0.0,0.0,1.0
1635634538.84375,0,0,10.66570049866413,0.0,1.0
1635634539.3125,0,0,14.984999648944719,0.0,1.0
1635634539.78125,0,0,0.0,0.0,1.0
1635634540.25,0,0,0.0,0.0,1.0
1635634540.71875,0,0,10.749453616067509,0.0,1.0
1635634541.1875,0,0,7.312614686248328,0.0,1.0
1635634541.65625,0,0,0.0,0.0,1.0
1635634542.125,0,0,10.080051654401036,0.0,1.0
1635634542.59375,0,0,0.0,0.0,1.0
1635634543.0625,0,0,13.563208767340612,0.0,1.0
1635634543.53125,0,0,10.856615761290156,0.0,1.0
1635634544.0,0,0,10.991934357988013,0.0,1.0
1635634544.46875,0,0,0.0,0.0,1.0
1635634544.9375,0,0,7.68467740356517,0.0,1.0
1635634545.40625,0,0,7.324322550017747,0.0,1.0
1635634545.875,0,0,6.078767663752952,0.0,1.0
1635634546.34375,0,0,3.595093220493504,0.0,1.0
1635634546.8125,0,0,0.0,0.0,1.0
1635634547.28125,0,0,11.616578125105368,0.0,1.0
1635634547.75,0,0,11.029230259870124,0.0,1.0
1635634548.21875,0,0,-9.989010778303518,0.0,1.0
1635634548.6875,0,0,6.1366381058044945,0.0,1.0
1635634549.15625,0,0,0.0,0.0,1.0
1635634549.625,0,0,39.612954926874444,0.0,1.0
1635634550.09375,0,0,0.0,0.0,1.0
1635634550.5625,0,0,91.58519366070134,0.0,1.0
1635634551.03125,0,0,0.0,0.0,1.0
1635634551.5,0,0,54.01611471232678,0.0,1.0
1635634551.96875,0,0,0.0,0.0,1.0
1635634552.4375,0,0,25.53937175502481,0.0,1.0
1635634552.90625,0,0,5.1424623546227926,0.0,1.0
1635634553.375,0,0,0.0,0.0,1.0
1635634553.84375,0,0,9.460912715414981,0.0,1.0
1635634554.3125,0,0,22.95796023260399,0.0,1.0
1635634554.78125,0,0,8.809656994389076,0.0,1.0
1635634555.25,0,0,0.0,0.0,1.0
1635634555.71875,0,0,14.916838182925016,0.0,1.0
1635634556.1875,0,0,0.0,0.0,1.0
1635634556.65625,0,0,14.229048230683063,0.0,1.0
1635634557.125,0,0,14.462222872351079,0.0,1.0
1635634557.59375,0,0,0.0,0.0,1.0
1635634558.0625,0,0,97.93760874527858,0.0,1.0
1635634558.53125,0,0,3.695703633775965,0.0,1.0
1635634559.0,0,0,39.920993560218484,0.0,1.0
1635634559.46875,0,0,0.0,0.0,1.0
1635634559.9375,0,0,81.14416587743173,0.0,1.0
1635634560.40625,0,0,-11.851322797899437,0.0,1.0
1635634560.875,0,0,0.0,0.0,1.0
1635634561.34375,0,0,0.0,0.0,1.0
1635634561.8125,0,0,20.459739732398123,0.0,1.0
1635634562.28125,0,0,9.318044603803452,0.0,1.0
1635634562.75,0,0,8.416972106247961,0.0,1.0
1635634563.21875,0,0,21.139796035918813,0.0,1.0
1635634563.6875,0,0,0.0,0.0,1.0
1635634564.15625,0,0,14.701575730668603,0.0,1.0
1635634564.625,0,0,8.282732413411246,0.0,1.0
1635634565.09375,0,0,6.256184909350675,0.0,1.0
1635634565.5625,0,0,5.894822225695747,0.0,1.0
1635634566.03125,0,0,7.227224600351913,0.0,1.0
1635634566.5,0,0,7.463126116868308,0.0,1.0
1635634566.96875,0,0,0.0,0.0,1.0
1635634567.4375,0,0,9.999739489128341,0.0,1.0
1635634567.90625,0,0,6.801407073081906,0.0,1.0
1635634568.375,0,0,0.0,0.0,1.0
1635634568.84375,0,0,10.522454712048793,0.0,1.0
1635634569.3125,0,0,0.0,0.0,1.0
1635634569.78125,0,0,0.0,0.0,1.0
1635634570.25,0,0,8.86946819688477,0.0,1.0
1635634570.71875,0,0,13.356948342122081,0.0,1.0
1635634571.1875,0,0,0.0,0.0,1.0
1635634571.65625,0,0,10.574280890409069,0.0,1.0
1635634572.125,0,0,17.79429007849917,0.0,1.0
1635634572.59375,0,0,9.937167929955551,0.0,1.0
1635634573.0625,0,0,0.0,0.0,1.0
1635634573.53125,0,0,14.563293006066727,0.0,1.0
1635634574.0,0,0,21.75911308616279,0.0,1.0
1635634574.46875,0,0,0.0,0.0,1.0
1635634574.9375,0,0,8.195313649965653,0.0,1.0
1635634575.40625,0,0,18.118279491087026,0.0,1.0
1635634575.875,0,0,4.365319507803233,0.0,1.0
1635634576.34375,0,0,0.0,0.0,1.0
1635634576.8125,0,0,14.257825154322445,0.0,1.0
1635634577.28125,0,0,15.203345733935828,0.0,1.0
1635634577.75,0,0,0.0,0.0,1.0
1635634578.21875,0,0,5.788022762865384,0.0,1.0
1635634578.6875,0,0,14.174187689791937,0.0,1.0
1635634579.15625,0,0,0.0,0.0,1.0
1635634579.625,0,0,24.71674631966799,0.0,1.0
1635634580.09375,0,0,0.5170129253946072,0.0,1.0
1635634580.5625,0,0,0.0,0.0,1.0
1635634581.03125,0,0,10.32203965315077,0.0,1.0
1635634581.5,0,0,23.444910908550266,0.0,1.0
1635634581.96875,0,0,0.0,0.0,1.0
1635634582.4375,0,0,0.58615540125545,0.0,1.0
1635634582.90625,0,0,8.609616312090099,0.0,1.0
1635634583.375,0,0,0.0,0.0,1.0
1635634583.84375,0,0,27.824315483815052,0.0,1.0
1635634584.3125,0,0,-2.378386849992744,0.0,1.0
1635634584.78125,0,0,8.643861924898209,0.0,1.0
1635634585.25,0,0,0.0,0.0,1.0
1635634585.71875,0,0,23.189803853709908,0.0,1.0
1635634586.1875,0,0,-0.14328154216781927,0.0,1.0
1635634586.65625,0,0,8.03779206338699,0.0,1.0
1635634587.125,0,0,0.0,0.0,1.0
1635634587.59375,0,0,24.769576516849444,0.0,1.0
1635634588.0625,0,0,4.839509697037015,0.0,1.0
1635634588.53125,0,0,0.0,0.0,1.0
1635634589.0,0,0,6.412906851274825,0.0,1.0
1635634589.46875,0,0,20.99141962659902,0.0,1.0
1635634589.9375,0,0,0.0,0.0,1.0
1635634590.40625,0,0,1.7072996888271805,0.0,1.0
1635634590.875,0,0,9.453203100932738,0.0,1.0
1635634591.34375,0,0,23.032090910763422,0.0,1.0
1635634591.8125,0,0,4.836520493530139,0.0,1.0
1635634592.28125,0,0,0.0,0.0,1.0
1635634592.75,0,0,9.970357513572825,0.0,1.0
1635634593.21875,0,0,0.0,0.0,1.0
1635634593.6875,0,0,8.441688887719012,0.0,1.0
1635634594.15625,0,0,23.151581928435213,0.0,1.0
1635634594.625,0,0,5.519366830840097,0.0,1.0
1635634595.09375,0,0,0.0,0.0,1.0
1635634595.5625,0,0,12.740465231080151,0.0,1.0
1635634596.03125,0,0,14.352143870689089,0.0,1.0
1635634596.5,0,0,0.0,0.0,1.0
1635634596.96875,0,0,1.8443434076079668,0.0,1.0
1635634597.4375,0,0,23.186615701113062,0.0,1.0
1635634597.90625,0,0,0.0,0.0,1.0
1635634598.375,0,0,3.0465047163783874,0.0,1.0
1635634598.84375,0,0,7.229767590561846,0.0,1.0
1635634599.3125,0,0,0.0,0.0,1.0
1635634599.78125,0,0,26.561902965591365,0.0,1.0
1635634600.25,0,0,-4.627055317389459,0.0,1.0
1635634600.71875,0,0,11.703353572507426,0.0,1.0
1635634601.1875,0,0,0.0,0.0,1.0
1635634601.65625,0,0,21.24958872804679,0.0,1.0
1635634602.125,0,0,8.813222679983419,0.0,1.0
1635634602.59375,0,0,0.0,0.0,1.0
1635634603.0625,0,0,13.553627670324342,0.0,1.0
1635634603.53125,0,0,18.508396554409167,0.0,1.0
1635634604.0,0,0,11.46507245113063,0.0,1.0
1635634604.46875,0,0,0.0,0.0,1.0
1635634604.9375,0,0,14.864042929788232,0.0,1.0
1635634605.40625,0,0,7.762132858462665,0.0,1.0
1635634605.875,0,0,0.0,0.0,1.0
1635634606.34375,0,0,9.445462337079334,0.0,1.0
1635634606.8125,0,0,11.80855204988726,0.0,1.0
1635634607.28125,0,0,0.0,0.0,1.0
1635634607.75,0,0,10.006745837333897,0.0,1.0
1635634608.21875,0,0,9.29628357314447,0.0,1.0
1635634608.6875,0,0,0.0,0.0,1.0
1635634609.15625,0,0,5.5658873538203535,0.0,1.0
1635634609.625,0,0,17.91580972826996,0.0,1.0
1635634610.09375,0,0,0.0,0.0,1.0
1635634610.5625,0,0,13.557828856851144,0.0,1.0
1635634611.03125,0,0,5.43835948997005,0.0,1.0
1635634611.5,0,0,0.0,0.0,1.0
1635634611.96875,0,0,9.62663615988289,0.0,1.0
1635634612.4375,0,0,14.884140687474206,0.0,1.0
1635634612.90625,0,0,0.0,0.0,1.0
1635634613.375,0,0,15.394459464644873,0.0,1.0
1635634613.84375,0,0,8.280548782967681,0.0,1.0
1635634614.3125,0,0,0.0,0.0,1.0
1635634614.78125,0,0,9.133056561808226,0.0,1.0
1635634615.25,0,0,19.07439792582069,0.0,1.0
1635634615.71875,0,0,0.0,0.0,1.0
1635634616.1875,0,0,13.265835693293656,0.0,1.0
1635634616.65625,0,0,0.0,0.0,1.0
1635634617.125,0,0,0.0,0.0,1.0
1635634617.59375,0,0,12.189026009457438,0.0,1.0
1635634618.0625,0,0,11.80231242140935,0.0,1.0
1635634618.53125,0,0,0.0,0.0,1.0
1635634619.0,0,0,19.223184900618573,0.0,1.0
1635634619.46875,0,0,7.907379386305338,0.0,1.0
1635634619.9375,0,0,6.8952183092632335,0.0,1.0
1635634620.40625,0,0,8.225338351610661,0.0,1.0
1635634620.875,0,0,18.508544740126993,0.0,1.0
1635634621.34375,0,0,67.04462474256505,0.0,1.0
1635634621.8125,0,0,0.0,0.0,1.0
1635634622.28125,0,0,0.0,0.0,1.0
1635634622.75,0,0,0.0,0.0,1.0
1635634623.21875,0,0,5.37894808557177,0.0,1.0
1635634623.6875,0,0,5.287444742324305,0.0,1.0
1635634624.15625,0,0,48.94703453766693,0.0,1.0
1635634624.625,0,0,0.0,0.0,1.0
1635634625.09375,0,0,6.116148378186627,0.0,1.0
1635634625.5625,0,0,25.334506550942763,0.0,1.0
1635634626.03125,0,0,3.8951555566776386,0.0,1.0
1635634626.5,0,0,0.0,0.0,1.0
1635634626.96875,0,0,11.040283133348531,0.0,1.0
1635634627.4375,0,0,0.0,0.0,1.0
1635634627.90625,0,0,2.4340074081215097,0.0,1.0
1635634628.375,0,0,7.78786967979059,0.0,1.0
1635634628.84375,0,0,10.069734492728672,0.0,1.0
1635634629.3125,0,0,0.0,0.0,1.0
1635634629.78125,0,0,7.269646453254437,0.0,1.0
1635634630.25,0,0,0.0,0.0,1.0
1635634630.71875,0,0,16.948398992486982,0.0,1.0
1635634631.1875,0,0,5.717523466010365,0.0,1.0
1635634631.65625,0,0,8.103511151039728,0.0,1.0
1635634632.125,0,0,0.0,0.0,1.0
1635634632.59375,0,0,0.0,0.0,1.0
1635634633.0625,0,0,10.849724983323789,0.0,1.0
1635634633.53125,0,0,13.541372128708746,0.0,1.0
1635634634.0,0,0,0.0,0.0,1.0
1635634634.46875,0,0,15.404247384815655,0.0,1.0
1635634634.9375,0,0,17.966739099008134,0.0,1.0
1635634635.40625,0,0,18.874170023639913,0.0,1.0
1635634635.875,0,0,0.0,0.0,1.0
1635634636.34375,0,0,19.598747065505847,0.0,1.0
1635634636.8125,0,0,0.0,0.0,1.0
1635634637.28125,0,0,13.797342795224463,0.0,1.0
1635634637.75,0,0,8.426659810554396,0.0,1.0
1635634638.21875,0,0,0.0,0.0,1.0
1635634638.6875,0,0,14.814913634083647,0.0,1.0
1635634639.15625,0,0,7.082718815095947,0.0,1.0
1635634639.625,0,0,3.0861646068695014,0.0,1.0
1635634640.09375,0,0,0.0,0.0,1.0
1635634640.5625,0,0,16.578608430942026,0.0,1.0
1635634641.03125,0,0,11.113552462294486,0.0,1.0
1635634641.5,0,0,0.0,0.0,1.0
1635634641.96875,0,0,0.0,0.0,1.0
1635634642.4375,0,0,10.760381585487934,0.0,1.0
1635634642.90625,0,0,14.941299681138752,0.0,1.0
1635634643.375,0,0,0.0,0.0,1.0
1635634643.84375,0,0,15.155682445401895,0.0,1.0
1635634644.3125,0,0,0.0,0.0,1.0
1635634644.78125,0,0,12.562650839923842,0.0,1.0
1635634645.25,0,0,5.440350880220422,0.0,1.0
1635634645.71875,0,0,0.0,0.0,1.0
1635634646.1875,0,0,14.015898468540529,0.0,1.0
1635634646.65625,0,0,15.263274555419034,0.0,1.0
1635634647.125,0,0,0.0,0.0,1.0
1635634647.59375,0,0,8.485806766888807,0.0,1.0
1635634648.0625,0,0,16.241651775116296,0.0,1.0
1635634648.53125,0,0,0.0,0.0,1.0
1635634649.0,0,0,14.426614635861302,0.0,1.0
1635634649.46875,0,0,0.0,0.0,1.0
1635634649.9375,0,0,0.0,0.0,1.0
1635634650.40625,0,0,7.824723236406795,0.0,1.0
1635634650.875,0,0,20.74588837096259,0.0,1.0
1635634651.34375,0,0,0.0,0.0,1.0
1635634651.8125,0,0,2.9734829958586513,0.0,1.0
1635634652.28125,0,0,0.0,0.0,1.0
1635634652.75,0,0,0.0,0.0,1.0
1635634653.21875,0,0,0.0,0.0,1.0
1635634653.6875,0,0,11.220076007215066,0.0,1.0
1635634654.15625,0,0,9.587705243784143,0.0,1.0
1635634654.625,0,0,6.194468255868519,0.0,1.0
1635634655.09375,0,0,0.0,0.0,1.0
1635634655.5625,0,0,18.987821667139787,0.0,1.0
1635634656.03125,0,0,7.504654476754118,0.0,1.0
1635634656.5,0,0,0.0,0.0,1.0
1635634656.96875,0,0,16.347043334809477,0.0,1.0
1635634657.4375,0,0,4.101647281863744,0.0,1.0
1635634657.90625,0,0,0.0,0.0,1.0
1635634658.375,0,0,11.755428796862907,0.0,1.0
1635634658.84375,0,0,14.399786867587574,0.0,1.0
1635634659.3125,0,0,0.0,0.0,1.0
1635634659.78125,0,0,4.4965949921555595,0.0,1.0
1635634660.25,0,0,0.0,0.0,1.0
1635634660.71875,0,0,14.671209789053504,0.0,1.0
1635634661.1875,0,0,13.481772122083733,0.0,1.0
1635634661.65625,0,0,0.0,0.0,1.0
1635634662.125,0,0,9.656156532142417,0.0,1.0
1635634662.59375,0,0,11.031112881450433,0.0,1.0
1635634663.0625,0,0,0.0,0.0,1.0
1635634663.53125,0,0,12.490103350958677,0.0,1.0
1635634664.0,0,0,0.0,0.0,1.0
1635634664.46875,0,0,0.0,0.0,1.0
1635634664.9375,0,0,13.796002897251357,0.0,1.0
1635634665.40625,0,0,6.069348537007229,0.0,1.0
1635634665.875,0,0,0.0,0.0,1.0
1635634666.34375,0,0,27.01054572071183,0.0,1.0
1635634666.8125,0,0,8.348928591304942,0.0,1.0
1635634667.28125,0,0,0.0,0.0,1.0
1635634667.75,0,0,17.109766943542756,0.0,1.0
1635634668.21875,0,0,122.0211475278505,0.0,1.0
1635634668.6875,0,0,0.0,0.0,1.0
1635634669.15625,0,0,21.380035282372095,0.0,1.0
1635634669.625,0,0,39.12744024532391,0.0,1.0
1635634670.09375,0,0,150.01490402363618,0.0,1.0
1635634670.5625,0,0,-74.57946196347405,0.0,1.0
1635634671.03125,0,0,-4.611185301637591,0.0,1.0
1635634671.5,0,0,41.30685056991282,0.0,1.0
1635634671.96875,0,0,81.78797519047718,0.0,1.0
1635634672.4375,0,0,30.85700084109697,0.0,1.0
1635634672.90625,0,0,85.66849927340247,0.0,1.0
1635634673.375,0,0,0.0,0.0,1.0
1635634673.84375,0,0,3.2634778925847048,0.0,1.0
1635634674.3125,0,0,0.0,0.0,1.0
1635634674.78125,0,0,7.027817114546009,0.0,1.0
1635634675.25,0,0,19.27697263362599,0.0,1.0
1635634675.71875,0,0,9.32438466999927,0.0,1.0
1635634676.1875,0,0,10.325546248514677,0.0,1.0
1635634676.65625,0,0,2.8604869104748207,0.0,1.0
1635634677.125,0,0,8.177501050651063,0.0,1.0
1635634677.59375,0,0,0.0,0.0,1.0
1635634678.0625,0,0,7.3439428477111734,0.0,1.0
1635634678.53125,0,0,10.134942921277164,0.0,1.0
1635634679.0,0,0,5.720534756207998,0.0,1.0
1635634679.46875,0,0,-17.218639423476407,0.0,1.0
1635634679.9375,0,0,0.0,0.0,2.0
1635634680.40625,0,0,100.8881212231777,0.0,2.0
1635634680.875,0,0,8.691894090686105,0.0,2.0
1635634681.34375,0,0,93.1495467134542,0.0,2.0
1635634681.8125,0,0,0.0,0.0,2.0
1635634682.28125,0,0,10.361786744713703,0.0,2.0
1635634682.75,0,0,9.539553874356333,0.0,2.0
1635634683.21875,0,0,84.94128861925644,0.0,2.0
1635634683.6875,0,0,0.0,0.0,2.0
1635634684.15625,0,0,19.701779063876735,0.0,2.0
1635634684.625,0,0,33.0011228337776,0.0,2.0
1635634685.09375,0,0,0.0,0.0,2.0
1635634685.5625,0,0,215.9851671294578,0.0,2.0
1635634686.03125,0,0,0.0,0.0,2.0
1635634686.5,0,0,0.0,0.0,2.0
1635634686.96875,0,0,55.35865344261267,0.0,2.0
1635634687.4375,0,0,34.14228067864333,0.0,2.0
1635634687.90625,0,0,0.0,0.0,2.0
1635634688.375,0,0,29.244465843318054,0.0,2.0
1635634688.84375,0,0,16.955833436183195,0.0,2.0
1635634689.3125,0,0,25.5065088026483,0.0,2.0
1635634689.78125,0,0,0.0,0.0,2.0
1635634690.25,0,0,26.174382021232255,0.0,2.0
1635634690.71875,0,0,17.920159515044606,0.0,2.0
1635634691.1875,0,0,0.0,0.0,2.0
1635634691.65625,0,0,25.644389062910797,0.0,2.0
1635634692.125,0,0,-1.2029556251891607,0.0,2.0
1635634692.59375,0,0,0.0,0.0,2.0
1635634693.0625,0,0,119.93681104272181,0.0,2.0
1635634693.53125,0,0,0.0,0.0,2.0
1635634694.0,0,0,0.0,0.0,2.0
1635634694.46875,0,0,185.75159358241126,0.0,2.0
1635634694.9375,0,0,-6.072054815219787,0.0,2.0
1635634695.40625,0,0,30.744178127728965,0.0,2.0
1635634695.875,0,0,40.531065281941416,0.0,2.0
1635634696.34375,0,0,0.0,0.0,2.0
1635634696.8125,0,0,16.571107993075714,0.0,2.0
1635634697.28125,0,0,14.739210956211169,0.0,2.0
1635634697.75,0,0,0.0,0.0,2.0
1635634698.21875,0,0,16.08224854864929,0.0,2.0
1635634698.6875,0,0,17.898973572475544,0.0,2.0
1635634699.15625,0,0,0.0,0.0,2.0
1635634699.625,0,0,17.91451835577289,0.0,2.0
1635634700.09375,0,0,14.8359999282602,0.0,2.0
1635634700.5625,0,0,0.0,0.0,2.0
1635634701.03125,0,0,12.240365854808207,0.0,2.0
1635634701.5,0,0,0.0,0.0,2.0
1635634701.96875,0,0,11.08086793235177,0.0,2.0
1635634702.4375,0,0,0.0,0.0,2.0
1635634702.90625,0,0,0.0,0.0,2.0
1635634703.375,0,0,-2.7518235411812877,0.0,2.0
1635634703.84375,0,0,0.0,0.0,2.0
1635634704.3125,0,0,10.776082954086634,0.0,2.0
1635634704.78125,0,0,0.0,0.0,2.0
1635634705.25,0,0,0.0,0.0,2.0
1635634705.71875,0,0,0.0,0.0,2.0
1635634706.1875,0,0,13.678971394065554,0.0,2.0
1635634706.65625,0,0,0.0,0.0,2.0
1635634707.125,0,0,7.209406116494659,0.0,2.0
1635634707.59375,0,0,4.6399946535862275,0.0,2.0
1635634708.0625,0,0,5.140659328777954,0.0,2.0
1635634708.53125,0,0,8.283195437370566,0.0,2.0
1635634709.0,0,0,0.41843543054778914,0.0,2.0
1635634709.46875,0,0,3.2129421301594703,0.0,2.0
1635634709.9375,0,0,7.677856237728306,0.0,2.0
1635634710.40625,0,0,0.0,0.0,2.0
1635634710.875,0,0,9.484733491641277,0.0,2.0
1635634711.34375,0,0,6.096211592187895,0.0,2.0
1635634711.8125,0,0,0.0,0.0,2.0
1635634712.28125,0,0,9.405864845067347,0.0,2.0
1635634712.75,0,0,0.0,0.0,2.0
1635634713.21875,0,0,8.203759722789629,0.0,2.0
1635634713.6875,0,0,5.0319502874448006,0.0,2.0
1635634714.15625,0,0,6.762662256600514,0.0,2.0
1635634714.625,0,0,0.0,0.0,2.0
1635634715.09375,0,0,17.30939484369352,0.0,2.0
1635634715.5625,0,0,3.5438645720071813,0.0,2.0
1635634716.03125,0,0,0.0,0.0,2.0
1635634716.5,0,0,12.772002405766662,0.0,2.0
1635634716.96875,0,0,6.9971281536878935,0.0,2.0
1635634717.4375,0,0,0.0,0.0,2.0
1635634717.90625,0,0,56.864187555487334,0.0,2.0
1635634718.375,0,0,-16.41742175319172,0.0,2.0
1635634718.84375,0,0,-1.9457211660339893,0.0,2.0
1635634719.3125,0,0,65.70565855774592,0.0,2.0
1635634719.78125,0,0,0.0,0.0,2.0
1635634720.25,0,0,1.4413776801305704,0.0,2.0
1635634720.71875,0,0,17.302776260879423,0.0,2.0
1635634721.1875,0,0,19.30785539695504,0.0,2.0
1635634721.65625,0,0,23.366371213592505,0.0,2.0
1635634722.125,0,0,11.148159379953949,0.0,2.0
1635634722.59375,0,0,4.623799465418931,0.0,2.0
1635634723.0625,0,0,2.932938583698467,0.0,2.0
1635634723.53125,0,0,5.849888102069131,0.0,2.0
1635634724.0,0,0,2.8995633527898956,0.0,2.0
1635634724.46875,0,0,0.0,0.0,2.0
1635634724.9375,0,0,4.555759135240007,0.0,2.0
1635634725.40625,0,0,1.3249550775714865,0.0,2.0
1635634725.875,0,0,3.3876635648756177,0.0,2.0
1635634726.34375,0,0,6.23294743415385,0.0,2.0
1635634726.8125,0,0,6.4042776383559215,0.0,2.0
1635634727.28125,0,0,2.4099857624176027,0.0,2.0
1635634727.75,0,0,9.49132153369539,0.0,2.0
1635634728.21875,0,0,11.5509867482574,0.0,2.0
1635634728.6875,0,0,0.0,0.0,2.0
1635634729.15625,0,0,12.948137389141824,0.0,2.0
1635634729.625,0,0,13.127559715874165,0.0,2.0
1635634730.09375,0,0,0.0,0.0,2.0
1635634730.5625,0,0,4.784921227667801,0.0,2.0
1635634731.03125,0,0,17.095220241474465,0.0,2.0
1635634731.5,0,0,15.802043201364455,0.0,2.0
1635634731.96875,0,0,0.0,0.0,2.0
1635634732.4375,0,0,13.829903230390707,0.0,2.0
1635634732.90625,0,0,17.11471959664606,0.0,2.0
1635634733.375,0,0,0.0,0.0,2.0
1635634733.84375,0,0,16.94296582491769,0.0,2.0
1635634734.3125,0,0,16.111024635881336,0.0,2.0
1635634734.78125,0,0,0.0,0.0,2.0
1635634735.25,0,0,0.0,0.0,2.0
1635634735.71875,0,0,10.108784968220837,0.0,2.0
1635634736.1875,0,0,0.0,0.0,2.0
1635634736.65625,0,0,7.752659224554852,0.0,2.0
1635634737.125,0,0,12.684860626647561,0.0,2.0
1635634737.59375,0,0,0.0,0.0,2.0
1635634738.0625,0,0,7.667263650917896,0.0,2.0
1635634738.53125,0,0,7.508845044500257,0.0,2.0
1635634739.0,0,0,1.9248047368021677,0.0,2.0
1635634739.46875,0,0,4.578591657524266,0.0,2.0
1635634739.9375,0,0,18.66031866169796,0.0,2.0
1635634740.40625,0,0,24.1788391181416,0.0,2.0
1635634740.875,0,0,0.0,0.0,2.0
1635634741.34375,0,0,206.8582045521226,0.0,2.0
1635634741.8125,0,0,0.0,0.0,2.0
1635634742.28125,0,0,222.89511118604426,0.0,2.0
1635634742.75,0,0,319.9088449240026,0.0,2.0
1635634743.21875,0,0,0.0,0.0,2.0
1635634743.6875,0,0,7.172798703841885,0.0,2.0
1635634744.15625,0,0,26.17463669549544,0.0,2.0
1635634744.625,0,0,28.52649874548772,0.0,2.0
1635634745.09375,0,0,11.21538043508421,0.0,2.0
1635634745.5625,0,0,9.57190117119938,0.0,2.0
1635634746.03125,0,0,1.9939161608609368,0.0,2.0
1635634746.5,0,0,-1.9357095869624552,0.0,2.0
1635634746.96875,0,0,13.16830079448022,0.0,2.0
1635634747.4375,0,0,16.266355733919045,0.0,2.0
1635634747.90625,0,0,4.876991147682381,0.0,2.0
1635634748.375,0,0,11.079804064909476,0.0,2.0
1635634748.84375,0,0,9.073232891268825,0.0,2.0
1635634749.3125,0,0,3.0381301478916907,0.0,2.0
1635634749.78125,0,0,2.9940741620643054,0.0,2.0
1635634750.25,0,0,12.7421068365226,0.0,2.0
1635634750.71875,0,0,2.4233448845952337,0.0,2.0
1635634751.1875,0,0,1.8946100025629398,0.0,2.0
1635634751.65625,0,0,8.321999769892471,0.0,2.0
1635634752.125,0,0,0.0,0.0,2.0
1635634752.59375,0,0,9.993829703539998,0.0,2.0
1635634753.0625,0,0,4.020144395199666,0.0,2.0
1635634753.53125,0,0,12.184993998615903,0.0,2.0
1635634754.0,0,0,14.530789565889348,0.0,2.0
1635634754.46875,0,0,0.0,0.0,2.0
1635634754.9375,0,0,13.569474168048124,0.0,2.0
1635634755.40625,0,0,19.107752467954988,0.0,2.0
1635634755.875,0,0,0.0,0.0,2.0
1635634756.34375,0,0,22.278178835789475,0.0,2.0
1635634756.8125,0,0,0.0,0.0,2.0
1635634757.28125,0,0,0.0,0.0,2.0
1635634757.75,0,0,23.014444911903887,0.0,2.0
1635634758.21875,0,0,0.0,0.0,2.0
1635634758.6875,0,0,24.18608929955777,0.0,2.0
1635634759.15625,0,0,24.661258822506937,0.0,2.0
1635634759.625,0,0,0.0,0.0,2.0
1635634760.09375,0,0,22.301245756777014,0.0,2.0
1635634760.5625,0,0,0.0,0.0,2.0
1635634761.03125,0,0,19.018731627045288,0.0,2.0
1635634761.5,0,0,16.08600590294268,0.0,2.0
1635634761.96875,0,0,0.0,0.0,2.0
1635634762.4375,0,0,15.276117469813869,0.0,2.0
1635634762.90625,0,0,0.0,0.0,2.0
1635634763.375,0,0,19.397698402080422,0.0,2.0
1635634763.84375,0,0,20.478467833639158,0.0,2.0
1635634764.3125,0,0,25.32462637171261,0.0,2.0
1635634764.78125,0,0,15.738508747154084,0.0,2.0
1635634765.25,0,0,0.0,0.0,2.0
1635634765.71875,0,0,16.318598326763226,0.0,2.0
1635634766.1875,0,0,0.0,0.0,2.0
1635634766.65625,0,0,17.437416879779615,0.0,2.0
1635634767.125,0,0,16.290655752350574,0.0,2.0
1635634767.59375,0,0,-1.0308971778233862,0.0,2.0
1635634768.0625,0,0,14.499724601099448,0.0,2.0
1635634768.53125,0,0,-4.885477354123737,0.0,2.0
1635634769.0,0,0,14.036882646237833,0.0,2.0
1635634769.46875,0,0,13.769091907550731,0.0,2.0
1635634769.9375,0,0,0.8043414777623046,0.0,2.0
1635634770.40625,0,0,12.86177502805266,0.0,2.0
1635634770.875,0,0,3.830378208572161,0.0,2.0
1635634771.34375,0,0,10.581192655867516,0.0,2.0
1635634771.8125,0,0,8.6454521505557,0.0,2.0
1635634772.28125,0,0,6.955522737339998,0.0,2.0
1635634772.75,0,0,6.951832269981556,0.0,2.0
1635634773.21875,0,0,9.079281657684641,0.0,2.0
1635634773.6875,0,0,6.0366052684291365,0.0,2.0
1635634774.15625,0,0,23.55200767089778,0.0,2.0
1635634774.625,0,0,0.0,0.0,2.0
1635634775.09375,0,0,15.614714364661001,0.0,2.0
1635634775.5625,0,0,0.0,0.0,2.0
1635634776.03125,0,0,0.0,0.0,2.0
1635634776.5,0,0,9.945823861741054,0.0,2.0
1635634776.96875,0,0,5.330440626250701,0.0,2.0
1635634777.4375,0,0,5.748320784751847,0.0,2.0
1635634777.90625,0,0,1.2883368776317057,0.0,2.0
1635634778.375,0,0,3.6156239885213406,0.0,2.0
1635634778.84375,0,0,2.3706762246970885,0.0,2.0
1635634779.3125,0,0,9.16029664423957,0.0,2.0
1635634779.78125,0,0,0.0,0.0,2.0
1635634780.25,0,0,5.008981857710497,0.0,2.0
1635634780.71875,0,0,1.9405637354056475,0.0,2.0
1635634781.1875,0,0,0.0,0.0,2.0
1635634781.65625,0,0,7.427754113136418,0.0,2.0
1635634782.125,0,0,1.236927285419896,0.0,2.0
1635634782.59375,0,0,11.733303879037226,0.0,2.0
1635634783.0625,0,0,0.0,0.0,2.0
1635634783.53125,0,0,4.426394583442616,0.0,2.0
1635634784.0,0,0,10.964526476120664,0.0,2.0
1635634784.46875,0,0,0.0,0.0,2.0
1635634784.9375,0,0,12.550372977834586,0.0,2.0
1635634785.40625,0,0,0.0,0.0,2.0
1635634785.875,0,0,14.790816989190699,0.0,2.0
1635634786.34375,0,0,13.094075809894843,0.0,2.0
1635634786.8125,0,0,0.0,0.0,2.0
1635634787.28125,0,0,15.531553896525494,0.0,2.0
1635634787.75,0,0,0.0,0.0,2.0
1635634788.21875,0,0,14.376770108315766,0.0,2.0
1635634788.6875,0,0,0.0,0.0,2.0
1635634789.15625,0,0,0.0,0.0,2.0
1635634789.625,0,0,10.776593489973344,0.0,2.0
1635634790.09375,0,0,0.0,0.0,2.0
1635634790.5625,0,0,13.299489910860185,0.0,2.0
1635634791.03125,0,0,0.0,0.0,2.0
1635634791.5,0,0,14.616930316607208,0.0,2.0
1635634791.96875,0,0,11.309144279174253,0.0,2.0
1635634792.4375,0,0,12.384826005635642,0.0,2.0
1635634792.90625,0,0,11.779979872624386,0.0,2.0
1635634793.375,0,0,0.0,0.0,2.0
1635634793.84375,0,0,11.93885238602875,0.0,2.0
1635634794.3125,0,0,0.0,0.0,2.0
1635634794.78125,0,0,13.932945825809789,0.0,2.0
1635634795.25,0,0,7.7772653226379775,0.0,2.0
1635634795.71875,0,0,0.0,0.0,2.0
1635634796.1875,0,0,12.212901034855346,0.0,2.0
1635634796.65625,0,0,11.692044477026533,0.0,2.0
1635634797.125,0,0,0.4017159185498593,0.0,2.0
1635634797.59375,0,0,15.110946011335823,0.0,2.0
1635634798.0625,0,0,0.0,0.0,2.0
1635634798.53125,0,0,14.130437409208998,0.0,2.0
1635634799.0,0,0,13.873408622992972,0.0,2.0
1635634799.46875,0,0,2.75565215972057,0.0,2.0
1635634799.9375,0,0,8.393116158625109,0.0,2.0
1635634800.40625,0,0,0.0,0.0,2.0
1635634800.875,0,0,6.529779569297268,0.0,2.0
1635634801.34375,0,0,7.27629984111169,0.0,2.0
1635634801.8125,0,0,0.0,0.0,2.0
1635634802.28125,0,0,12.084283321797203,0.0,2.0
1635634802.75,0,0,5.887573570548288,0.0,2.0
1635634803.21875,0,0,0.0,0.0,2.0
1635634803.6875,0,0,17.766520332917572,0.0,2.0
1635634804.15625,0,0,0.0,0.0,2.0
1635634804.625,0,0,0.0,0.0,2.0
1635634805.09375,0,0,102.48781769429851,0.0,2.0
1635634805.5625,0,0,249.09799413965337,0.0,2.0
1635634806.03125,0,0,0.0,0.0,2.0
1635634806.5,0,0,135.49985544475751,0.0,2.0
1635634806.96875,0,0,0.0,0.0,2.0
1635634807.4375,0,0,59.22649590845724,0.0,2.0
1635634807.90625,0,0,111.18899341795567,0.0,2.0
1635634808.375,0,0,0.0,0.0,2.0
1635634808.84375,0,0,69.48856678128325,0.0,2.0
1635634809.3125,0,0,-65.73751950477477,0.0,2.0
1635634809.78125,0,0,26.573329565202457,0.0,2.0
1635634810.25,0,0,141.55457643179722,0.0,2.0
1635634810.71875,0,0,147.34939221159934,0.0,2.0
1635634811.1875,0,0,192.59100153999242,0.0,2.0
1635634811.65625,0,0,17.425298485375578,0.0,2.0
1635634812.125,0,0,96.41674568221131,0.0,2.0
1635634812.59375,0,0,-24.22093261952221,0.0,2.0
1635634813.0625,0,0,-22.723077923310342,0.0,2.0
1635634813.53125,0,0,62.70420949704119,0.0,2.0
1635634814.0,0,0,4.998802650183016,0.0,2.0
1635634814.46875,0,0,-1.5204239688636845,0.0,2.0
1635634814.9375,0,0,19.452307389887892,0.0,2.0
1635634815.40625,0,0,18.004955833366115,0.0,2.0
1635634815.875,0,0,20.56943581789802,0.0,2.0
1635634816.34375,0,0,19.17233305075715,0.0,2.0
1635634816.8125,0,0,4.016025582901573,0.0,2.0
1635634817.28125,0,0,-6.4563815343154785,0.0,2.0
1635634817.75,0,0,81.12156072201182,0.0,2.0
1635634818.21875,0,0,48.19504952218789,0.0,2.0
1635634818.6875,0,0,47.9218432109111,0.0,2.0
1635634819.15625,0,0,0.0,0.0,2.0
1635634819.625,0,0,11.851035354652279,0.0,2.0
1635634820.09375,0,0,91.7634074148847,0.0,2.0
1635634820.5625,0,0,59.58002469193753,0.0,2.0
1635634821.03125,0,0,0.0,0.0,2.0
1635634821.5,0,0,96.92850906412203,0.0,2.0
1635634821.96875,0,0,0.0,0.0,2.0
1635634822.4375,0,0,362.73436767519763,0.0,2.0
1635634822.90625,0,0,100.7850961710877,0.0,2.0
1635634823.375,0,0,0.0,0.0,2.0
1635634823.84375,0,0,327.07130087525024,0.0,2.0
1635634824.3125,0,0,-47.442750194821905,0.0,2.0
1635634824.78125,0,0,-6.154951123285792,0.0,2.0
1635634825.25,0,0,49.44710515325783,0.0,2.0
1635634825.71875,0,0,3.2591439642350712,0.0,2.0
1635634826.1875,0,0,9.963231583386298,0.0,2.0
1635634826.65625,0,0,8.745134997116429,0.0,2.0
1635634827.125,0,0,8.405169610680023,0.0,2.0
1635634827.59375,0,0,0.0,0.0,2.0
1635634828.0625,0,0,16.383794737489485,0.0,2.0
1635634828.53125,0,0,34.34332780992806,0.0,2.0
1635634829.0,0,0,-2.765813817441072,0.0,2.0
1635634829.46875,0,0,6.68399973740829,0.0,2.0
1635634829.9375,0,0,-11.134292515911824,0.0,2.0
1635634830.40625,0,0,33.97088872032713,0.0,2.0
1635634830.875,0,0,1.480140384884296,0.0,2.0
1635634831.34375,0,0,16.519062326384034,0.0,2.0
1635634831.8125,0,0,-0.4895995823896897,0.0,2.0
1635634832.28125,0,0,0.0,0.0,2.0
1635634832.75,0,0,27.66857697766486,0.0,2.0
1635634833.21875,0,0,22.897062990407353,0.0,2.0
1635634833.6875,0,0,0.0,0.0,2.0
1635634834.15625,0,0,15.939200162248977,0.0,2.0
1635634834.625,0,0,62.640789275185696,0.0,2.0
1635634835.09375,0,0,-8.089236213775642,0.0,2.0
1635634835.5625,0,0,-7.9113973653462955,0.0,2.0
1635634836.03125,0,0,43.48258150122351,0.0,2.0
1635634836.5,0,0,-26.469566872037024,0.0,2.0
1635634836.96875,0,0,37.483280073751125,0.0,2.0
1635634837.4375,0,0,40.62296407622277,0.0,2.0
1635634837.90625,0,0,-3.0539095878452693,0.0,2.0
1635634838.375,0,0,0.0,0.0,2.0
1635634838.84375,0,0,14.993905098308256,0.0,2.0
1635634839.3125,0,0,14.765576117339952,0.0,2.0
1635634839.78125,0,0,29.254842143089526,0.0,2.0
1635634840.25,0,0,-14.60079648197151,0.0,2.0
1635634840.71875,0,0,30.665679762767663,0.0,2.0
1635634841.1875,0,0,21.64428877420198,0.0,2.0
1635634841.65625,0,0,0.0,0.0,2.0
1635634842.125,0,0,11.264535134082772,0.0,2.0
1635634842.59375,0,0,-1.8478435729034022,0.0,2.0
1635634843.0625,0,0,23.958441121084245,0.0,2.0
1635634843.53125,0,0,13.469107814627518,0.0,2.0
1635634844.0,0,0,0.0,0.0,2.0
1635634844.46875,0,0,16.39320850008735,0.0,2.0
1635634844.9375,0,0,17.794914849995,0.0,2.0
1635634845.40625,0,0,11.969451663402205,0.0,2.0
1635634845.875,0,0,1.3410688556741575,0.0,2.0
1635634846.34375,0,0,35.4162321795795,0.0,2.0
1635634846.8125,0,0,16.747073223663996,0.0,2.0
1635634847.28125,0,0,29.987402876403486,0.0,2.0
1635634847.75,0,0,4.598469791105219,0.0,2.0
1635634848.21875,0,0,-4.077633450016941,0.0,2.0
1635634848.6875,0,0,-18.638424409303163,0.0,2.0
1635634849.15625,0,0,92.56010400801902,0.0,2.0
1635634849.625,0,0,120.6301240139201,0.0,2.0
1635634850.09375,0,0,203.35845999882775,0.0,2.0
1635634850.5625,0,0,284.09158879632616,0.0,2.0
1635634851.03125,0,0,36.623456206697995,0.0,2.0
1635634851.5,0,0,0.0,0.0,2.0
1635634851.96875,0,0,14.277202067441692,0.0,2.0
1635634852.4375,0,0,66.15431025700533,0.0,2.0
1635634852.90625,0,0,8.285874153486802,0.0,2.0
1635634853.375,0,0,-37.34498945257652,0.0,2.0
1635634853.84375,0,0,123.84124205902117,0.0,2.0
1635634854.3125,0,0,2.3134314873728714,0.0,2.0
1635634854.78125,0,0,43.61831876571674,0.0,2.0
1635634855.25,0,0,49.78554142173531,0.0,2.0
1635634855.71875,0,0,0.0,0.0,2.0
1635634856.1875,0,0,1.3793745393743098,0.0,2.0
1635634856.65625,0,0,32.140215157931785,0.0,2.0
1635634857.125,0,0,11.001840754631896,0.0,2.0
1635634857.59375,0,0,0.0,0.0,2.0
1635634858.0625,0,0,10.310221218067069,0.0,2.0
1635634858.53125,0,0,9.906075007926141,0.0,2.0
1635634859.0,0,0,16.388754479792198,0.0,2.0
1635634859.46875,0,0,0.0,0.0,2.0
1635634859.9375,0,0,14.623791894640972,0.0,2.0
1635634860.40625,0,0,9.19942953958066,0.0,2.0
1635634860.875,0,0,0.0,0.0,2.0
1635634861.34375,0,0,0.0,0.0,2.0
1635634861.8125,0,0,10.318974648506968,0.0,2.0
1635634862.28125,0,0,0.0,0.0,2.0
1635634862.75,0,0,10.09685724899163,0.0,2.0
1635634863.21875,0,0,4.818422582200956,0.0,2.0
1635634863.6875,0,0,0.0,0.0,2.0
1635634864.15625,0,0,7.549212323474833,0.0,2.0
1635634864.625,0,0,7.522466862307174,0.0,2.0
1635634865.09375,0,0,3.1055218895611953,0.0,2.0
1635634865.5625,0,0,7.071056378234924,0.0,2.0
1635634866.03125,0,0,8.09020538429324,0.0,2.0
1635634866.5,0,0,0.0,0.0,2.0
1635634866.96875,0,0,5.139894388193278,0.0,2.0
1635634867.4375,0,0,11.249389478089247,0.0,2.0
1635634867.90625,0,0,0.0,0.0,2.0
1635634868.375,0,0,9.204412509552096,0.0,2.0
1635634868.84375,0,0,-21.17009065058677,0.0,2.0
1635634869.3125,0,0,166.9972300923789,0.0,2.0
1635634869.78125,0,0,66.79857030583948,0.0,2.0
1635634870.25,0,0,37.173333867823665,0.0,2.0
1635634870.71875,0,0,24.543854271991176,0.0,2.0
1635634871.1875,0,0,0.0,0.0,2.0
1635634871.65625,0,0,14.728543320637122,0.0,2.0
1635634872.125,0,0,12.597173174439478,0.0,2.0
1635634872.59375,0,0,7.782256203121971,0.0,2.0
1635634873.0625,0,0,-5.444230782789032,0.0,2.0
1635634873.53125,0,0,9.310694661809404,0.0,2.0
1635634874.0,0,0,0.0,0.0,3.0
1635634874.46875,0,0,0.0,0.0,3.0
1635634874.9375,0,0,0.0,0.0,3.0
1635634875.40625,0,0,10.132546180327061,0.0,3.0
1635634875.875,0,0,103.41429024060983,0.0,3.0
1635634876.34375,0,0,-27.21244664498289,0.0,3.0
1635634876.8125,0,0,0.0,0.0,3.0
1635634877.28125,0,0,335.76912817830737,0.0,3.0
1635634877.75,0,0,0.0,0.0,3.0
1635634878.21875,0,0,0.0,0.0,3.0
1635634878.6875,0,0,0.0,0.0,3.0
1635634879.15625,0,0,104.39909405499405,0.0,3.0
1635634879.625,0,0,0.0,0.0,3.0
1635634880.09375,0,0,26.373777753663582,0.0,3.0
1635634880.5625,0,0,19.917772679389966,0.0,3.0
1635634881.03125,0,0,0.0,0.0,3.0
1635634881.5,0,0,48.852279581589336,0.0,3.0
1635634881.96875,0,0,16.367049441899177,0.0,3.0
1635634882.4375,0,0,0.0,0.0,3.0
1635634882.90625,0,0,27.78725440545748,0.0,3.0
1635634883.375,0,0,10.592526051735334,0.0,3.0
1635634883.84375,0,0,0.0,0.0,3.0
1635634884.3125,0,0,18.822831426395535,0.0,3.0
1635634884.78125,0,0,20.428525786034015,0.0,3.0
1635634885.25,0,0,0.0,0.0,3.0
1635634885.71875,0,0,0.0,0.0,3.0
1635634886.1875,0,0,18.281261619181187,0.0,3.0
1635634886.65625,0,0,0.0,0.0,3.0
1635634887.125,0,0,15.111632119537806,0.0,3.0
1635634887.59375,0,0,69.09118241227571,0.0,3.0
1635634888.0625,0,0,49.38687113856757,0.0,3.0
1635634888.53125,0,0,38.17722782073011,0.0,3.0
1635634889.0,0,0,0.0,0.0,3.0
1635634889.46875,0,0,37.90842654361523,0.0,3.0
1635634889.9375,0,0,3.0848411095884405,0.0,3.0
1635634890.40625,0,0,10.589900892561104,0.0,3.0
1635634890.875,0,0,-3.681433363000407,0.0,3.0
1635634891.34375,0,0,0.0,0.0,3.0
1635634891.8125,0,0,0.0,0.0,3.0
1635634892.28125,0,0,9.20711876107591,0.0,3.0
1635634892.75,0,0,-0.3059591956420913,0.0,3.0
1635634893.21875,0,0,32.31896107397585,0.0,3.0
1635634893.6875,0,0,-0.8991090564655781,0.0,3.0
1635634894.15625,0,0,0.18846225124672009,0.0,3.0
1635634894.625,0,0,11.468857209823463,0.0,3.0
1635634895.09375,0,0,27.0268157343622,0.0,3.0
1635634895.5625,0,0,0.0,0.0,3.0
1635634896.03125,0,0,0.0,0.0,3.0
1635634896.5,0,0,7.085512190818189,0.0,3.0
1635634896.96875,0,0,35.814177284053855,0.0,3.0
1635634897.4375,0,0,0.0,0.0,3.0
1635634897.90625,0,0,8.682383812641302,0.0,3.0
1635634898.375,0,0,8.830783245520855,0.0,3.0
1635634898.84375,0,0,4.768343324210801,0.0,3.0
1635634899.3125,0,0,0.0,0.0,3.0
1635634899.78125,0,0,19.904167470182518,0.0,3.0
1635634900.25,0,0,13.083819693577727,0.0,3.0
1635634900.71875,0,0,0.0,0.0,3.0
1635634901.1875,0,0,11.646921847461812,0.0,3.0
1635634901.65625,0,0,4.843844885081179,0.0,3.0
1635634902.125,0,0,11.77047173438674,0.0,3.0
1635634902.59375,0,0,0.0,0.0,3.0
1635634903.0625,0,0,15.692548206871464,0.0,3.0
1635634903.53125,0,0,3.2212512104381217,0.0,3.0
1635634904.0,0,0,4.654214683438804,0.0,3.0
1635634904.46875,0,0,10.046668029207027,0.0,3.0
1635634904.9375,0,0,0.0,0.0,3.0
1635634905.40625,0,0,33.78899230569721,0.0,3.0
1635634905.875,0,0,11.769571905026297,0.0,3.0
1635634906.34375,0,0,0.0,0.0,3.0
1635634906.8125,0,0,10.944413491050963,0.0,3.0
1635634907.28125,0,0,23.616035149998954,0.0,3.0
1635634907.75,0,0,0.0,0.0,3.0
1635634908.21875,0,0,16.637057614115367,0.0,3.0
1635634908.6875,0,0,10.59843504032075,0.0,3.0
1635634909.15625,0,0,13.530621704687503,0.0,3.0
1635634909.625,0,0,-0.759328607964886,0.0,3.0
1635634910.09375,0,0,10.06745371979953,0.0,3.0
1635634910.5625,0,0,10.41671430801801,0.0,3.0
1635634911.03125,0,0,0.0,0.0,3.0
1635634911.5,0,0,11.364759041498397,0.0,3.0
1635634911.96875,0,0,13.679849068519484,0.0,3.0
1635634912.4375,0,0,0.0,0.0,3.0
1635634912.90625,0,0,12.098582797335025,0.0,3.0
1635634913.375,0,0,0.0,0.0,3.0
1635634913.84375,0,0,13.175986789143492,0.0,3.0
1635634914.3125,0,0,7.055075456127937,0.0,3.0
1635634914.78125,0,0,0.0,0.0,3.0
1635634915.25,0,0,26.102736629038056,0.0,3.0
1635634915.71875,0,0,15.282799666246667,0.0,3.0
1635634916.1875,0,0,0.0,0.0,3.0
1635634916.65625,0,0,10.010910687804968,0.0,3.0
1635634917.125,0,0,23.666998466797036,0.0,3.0
1635634917.59375,0,0,16.254879137910933,0.0,3.0
1635634918.0625,0,0,0.0,0.0,3.0
1635634918.53125,0,0,13.898107805142569,0.0,3.0
1635634919.0,0,0,11.86778508786036,0.0,3.0
1635634919.46875,0,0,6.227184663689555,0.0,3.0
1635634919.9375,0,0,8.664526781559022,0.0,3.0
1635634920.40625,0,0,3.1407886313418913,0.0,3.0
1635634920.875,0,0,0.0,0.0,3.0
1635634921.34375,0,0,19.92245249655103,0.0,3.0
1635634921.8125,0,0,12.333863664919804,0.0,3.0
1635634922.28125,0,0,10.363044401415015,0.0,3.0
1635634922.75,0,0,5.963692142019375,0.0,3.0
1635634923.21875,0,0,25.876861061631033,0.0,3.0
1635634923.6875,0,0,0.0,0.0,3.0
1635634924.15625,0,0,11.935299846517553,0.0,3.0
1635634924.625,0,0,9.8853858701815,0.0,3.0
1635634925.09375,0,0,13.443098275232426,0.0,3.0
1635634925.5625,0,0,9.10565192405565,0.0,3.0
1635634926.03125,0,0,13.278722385964457,0.0,3.0
1635634926.5,0,0,0.0,0.0,3.0
1635634926.96875,0,0,15.298703033137585,0.0,3.0
1635634927.4375,0,0,10.360440035730047,0.0,3.0
1635634927.90625,0,0,0.0,0.0,3.0
1635634928.375,0,0,14.631516768048444,0.0,3.0
1635634928.84375,0,0,27.656479954838783,0.0,3.0
1635634929.3125,0,0,0.0,0.0,3.0
1635634929.78125,0,0,14.891530633614636,0.0,3.0
1635634930.25,0,0,11.262316666775861,0.0,3.0
1635634930.71875,0,0,0.0,0.0,3.0
1635634931.1875,0,0,23.066313528634854,0.0,3.0
1635634931.65625,0,0,1.4739132742659669,0.0,3.0
1635634932.125,0,0,6.154744354946504,0.0,3.0
1635634932.59375,0,0,12.45372344333832,0.0,3.0
1635634933.0625,0,0,14.378031121023271,0.0,3.0
1635634933.53125,0,0,19.199989963139924,0.0,3.0
1635634934.0,0,0,0.0,0.0,3.0
1635634934.46875,0,0,14.091084048863111,0.0,3.0
1635634934.9375,0,0,0.0,0.0,3.0
1635634935.40625,0,0,10.138975727334534,0.0,3.0
1635634935.875,0,0,4.850910258052741,0.0,3.0
1635634936.34375,0,0,0.0,0.0,3.0
1635634936.8125,0,0,22.982558634258982,0.0,3.0
1635634937.28125,0,0,1.2042170444850444,0.0,3.0
1635634937.75,0,0,32.46697072331483,0.0,3.0
1635634938.21875,0,0,93.07722401143532,0.0,3.0
1635634938.6875,0,0,0.0,0.0,3.0
1635634939.15625,0,0,0.0,0.0,3.0
1635634939.625,0,0,0.0,0.0,3.0
1635634940.09375,0,0,148.31152588236236,0.0,3.0
1635634940.5625,0,0,0.0,0.0,3.0
1635634941.03125,0,0,46.212889413913565,0.0,3.0
1635634941.5,0,0,25.987929302307094,0.0,3.0
1635634941.96875,0,0,0.0,0.0,3.0
1635634942.4375,0,0,-1.5643921987559324,0.0,3.0
1635634942.90625,0,0,21.903355232323598,0.0,3.0
1635634943.375,0,0,19.057658286456423,0.0,3.0
1635634943.84375,0,0,17.72118186091302,0.0,3.0
1635634944.3125,0,0,6.125454042917304,0.0,3.0
1635634944.78125,0,0,0.0,0.0,3.0
1635634945.25,0,0,7.110085660334699,0.0,3.0
1635634945.71875,0,0,-2.209500100239484,0.0,3.0
1635634946.1875,0,0,11.103568683406454,0.0,3.0
1635634946.65625,0,0,-1.4190146004829225,0.0,3.0
1635634947.125,0,0,8.03052496515065,0.0,3.0
1635634947.59375,0,0,0.0,0.0,3.0
1635634948.0625,0,0,31.49144229689987,0.0,3.0
1635634948.53125,0,0,4.211006246705086,0.0,3.0
1635634949.0,0,0,4.510958713816463,0.0,3.0
1635634949.46875,0,0,0.0,0.0,3.0
1635634949.9375,0,0,18.211335294909993,0.0,3.0
1635634950.40625,0,0,3.0178852798341755,0.0,3.0
1635634950.875,0,0,7.490731322839803,0.0,3.0
1635634951.34375,0,0,0.0,0.0,3.0
1635634951.8125,0,0,22.034541541938196,0.0,3.0
1635634952.28125,0,0,12.47743288377836,0.0,3.0
1635634952.75,0,0,11.523404283667576,0.0,3.0
1635634953.21875,0,0,0.0,0.0,3.0
1635634953.6875,0,0,23.805991429010138,0.0,3.0
1635634954.15625,0,0,0.0,0.0,3.0
1635634954.625,0,0,0.0,0.0,3.0
1635634955.09375,0,0,15.237403402232154,0.0,3.0
1635634955.5625,0,0,20.008082669975987,0.0,3.0
1635634956.03125,0,0,24.72013134574022,0.0,3.0
1635634956.5,0,0,0.0,0.0,3.0
1635634956.96875,0,0,28.930327446512948,0.0,3.0
1635634957.4375,0,0,21.383737097408925,0.0,3.0
1635634957.90625,0,0,20.659545478984935,0.0,3.0
1635634958.375,0,0,16.131283859547587,0.0,3.0
1635634958.84375,0,0,23.683476516361736,0.0,3.0
1635634959.3125,0,0,0.0,0.0,3.0
1635634959.78125,0,0,0.0,0.0,3.0
1635634960.25,0,0,20.376385626393706,0.0,3.0
1635634960.71875,0,0,21.068245784174522,0.0,3.0
1635634961.1875,0,0,0.0,0.0,3.0
1635634961.65625,0,0,24.39693018967822,0.0,3.0
1635634962.125,0,0,10.610563260479147,0.0,3.0
1635634962.59375,0,0,19.697731795901436,0.0,3.0
1635634963.0625,0,0,0.0,0.0,3.0
1635634963.53125,0,0,18.580022556222268,0.0,3.0
1635634964.0,0,0,0.0,0.0,3.0
1635634964.46875,0,0,0.0,0.0,3.0
1635634964.9375,0,0,17.764906137322008,0.0,3.0
1635634965.40625,0,0,24.530681055552797,0.0,3.0
1635634965.875,0,0,0.0,0.0,3.0
1635634966.34375,0,0,20.877015623296327,0.0,3.0
1635634966.8125,0,0,20.12047151645125,0.0,3.0
1635634967.28125,0,0,0.0,0.0,3.0
1635634967.75,0,0,28.662993705627052,0.0,3.0
1635634968.21875,0,0,22.296975089539654,0.0,3.0
1635634968.6875,0,0,16.045339061803535,0.0,3.0
1635634969.15625,0,0,0.0,0.0,3.0
1635634969.625,0,0,31.683066744392498,0.0,3.0
1635634970.09375,0,0,21.9228757073512,0.0,3.0
1635634970.5625,0,0,0.0,0.0,3.0
1635634971.03125,0,0,13.638702923749022,0.0,3.0
1635634971.5,0,0,23.64330552067964,0.0,3.0
1635634971.96875,0,0,23.60127744496582,0.0,3.0
1635634972.4375,0,0,0.0,0.0,3.0
1635634972.90625,0,0,15.715930862299507,0.0,3.0
1635634973.375,0,0,0.0,0.0,3.0
1635634973.84375,0,0,0.0,0.0,3.0
1635634974.3125,0,0,21.483393941256885,0.0,3.0
1635634974.78125,0,0,15.994930809605567,0.0,3.0
1635634975.25,0,0,0.0,0.0,3.0
1635634975.71875,0,0,23.53601611381866,0.0,3.0
1635634976.1875,0,0,16.188189509547424,0.0,3.0
1635634976.65625,0,0,0.0,0.0,3.0
1635634977.125,0,0,11.458438001943046,0.0,3.0
1635634977.59375,0,0,11.878957607950694,0.0,3.0
1635634978.0625,0,0,14.33557838622299,0.0,3.0
1635634978.53125,0,0,0.0,0.0,3.0
1635634979.0,0,0,9.265707799936523,0.0,3.0
1635634979.46875,0,0,4.940457731584089,0.0,3.0
1635634979.9375,0,0,0.0,0.0,3.0
1635634980.40625,0,0,9.679699171746865,0.0,3.0
1635634980.875,0,0,0.0,0.0,3.0
1635634981.34375,0,0,17.851936766738397,0.0,3.0
1635634981.8125,0,0,7.538969837728014,0.0,3.0
1635634982.28125,0,0,8.882076833641243,0.0,3.0
1635634982.75,0,0,0.0,0.0,3.0
1635634983.21875,0,0,13.867430024221653,0.0,3.0
1635634983.6875,0,0,11.965705627009115,0.0,3.0
1635634984.15625,0,0,-3.2754269219654963,0.0,3.0
1635634984.625,0,0,13.79118763332986,0.0,3.0
1635634985.09375,0,0,18.979156938263046,0.0,3.0
1635634985.5625,0,0,8.812824324783922,0.0,3.0
1635634986.03125,0,0,12.935425921829719,0.0,3.0
1635634986.5,0,0,11.225650210827077,0.0,3.0
1635634986.96875,0,0,0.0,0.0,3.0
1635634987.4375,0,0,17.200463340743838,0.0,3.0
1635634987.90625,0,0,16.442560642009695,0.0,3.0
1635634988.375,0,0,0.0,0.0,3.0
1635634988.84375,0,0,2.13959068696405,0.0,3.0
1635634989.3125,0,0,43.41472355976001,0.0,3.0
1635634989.78125,0,0,12.67042685760464,0.0,3.0
1635634990.25,0,0,0.0,0.0,3.0
1635634990.71875,0,0,18.34723463027002,0.0,3.0
1635634991.1875,0,0,7.814717925047826,0.0,3.0
1635634991.65625,0,0,-3.4192084549058177,0.0,3.0
1635634992.125,0,0,2.017689689543055,0.0,3.0
1635634992.59375,0,0,64.89016529096234,0.0,3.0
1635634993.0625,0,0,0.0,0.0,3.0
1635634993.53125,0,0,0.0,0.0,3.0
1635634994.0,0,0,53.877273157508505,0.0,3.0
1635634994.46875,0,0,0.0,0.0,3.0
1635634994.9375,0,0,9.839177625238475,0.0,3.0
1635634995.40625,0,0,14.137436717991296,0.0,3.0
1635634995.875,0,0,18.53257654582072,0.0,3.0
1635634996.34375,0,0,0.0,0.0,3.0
1635634996.8125,0,0,0.0,0.0,3.0
1635634997.28125,0,0,12.311229104962424,0.0,3.0
1635634997.75,0,0,9.402123099165905,0.0,3.0
1635634998.21875,0,0,0.0,0.0,3.0
1635634998.6875,0,0,6.733347291039227,0.0,3.0
1635634999.15625,0,0,14.651436213869081,0.0,3.0
1635634999.625,0,0,0.0,0.0,3.0
1635635000.09375,0,0,8.416471376548346,0.0,3.0
1635635000.5625,0,0,8.646040987994034,0.0,3.0
1635635001.03125,0,0,9.156827440697404,0.0,3.0
1635635001.5,0,0,6.563961855929534,0.0,3.0
1635635001.96875,0,0,5.4701260911170975,0.0,3.0
1635635002.4375,0,0,0.0,0.0,3.0
1635635002.90625,0,0,56.29577035151446,0.0,3.0
1635635003.375,0,0,26.872499593133888,0.0,3.0
1635635003.84375,0,0,35.18597706509547,0.0,3.0
1635635004.3125,0,0,43.2878121882586,0.0,3.0
1635635004.78125,0,0,-0.8305824483712932,0.0,3.0
1635635005.25,0,0,9.413086930269298,0.0,3.0
1635635005.71875,0,0,0.0,0.0,3.0
1635635006.1875,0,0,39.01589955471714,0.0,3.0
1635635006.65625,0,0,11.86710075253301,0.0,3.0
1635635007.125,0,0,0.0,0.0,3.0
1635635007.59375,0,0,7.363141717291763,0.0,3.0
1635635008.0625,0,0,26.25544414400579,0.0,3.0
1635635008.53125,0,0,14.162932863240615,0.0,3.0
1635635009.0,0,0,11.010777209218793,0.0,3.0
1635635009.46875,0,0,0.0,0.0,3.0
1635635009.9375,0,0,21.83629909403925,0.0,3.0
1635635010.40625,0,0,0.0,0.0,3.0
1635635010.875,0,0,13.495512869369911,0.0,3.0
1635635011.34375,0,0,2.0654157319690505,0.0,3.0
1635635011.8125,0,0,20.00935811705102,0.0,3.0
1635635012.28125,0,0,-5.244938955389027,0.0,3.0
1635635012.75,0,0,10.984255048148611,0.0,3.0
1635635013.21875,0,0,7.268016313860552,0.0,3.0
1635635013.6875,0,0,7.649845777397041,0.0,3.0
1635635014.15625,0,0,4.09937085026311,0.0,3.0
1635635014.625,0,0,5.387846792288109,0.0,3.0
1635635015.09375,0,0,0.0,0.0,3.0
1635635015.5625,0,0,0.0,0.0,3.0
1635635016.03125,0,0,14.158833231769,0.0,3.0
1635635016.5,0,0,0.0,0.0,3.0
1635635016.96875,0,0,8.031001182953705,0.0,3.0
1635635017.4375,0,0,15.262392203058415,0.0,3.0
1635635017.90625,0,0,0.0,0.0,3.0
1635635018.375,0,0,14.672339743542654,0.0,3.0
1635635018.84375,0,0,16.347261181562974,0.0,3.0
1635635019.3125,0,0,0.0,0.0,3.0
1635635019.78125,0,0,9.464267014483287,0.0,3.0
1635635020.25,0,0,16.799658121757275,0.0,3.0
1635635020.71875,0,0,0.0,0.0,3.0
1635635021.1875,0,0,8.124863842070543,0.0,3.0
1635635021.65625,0,0,13.40288484014975,0.0,3.0
1635635022.125,0,0,0.0,0.0,3.0
1635635022.59375,0,0,15.481044437239824,0.0,3.0
1635635023.0625,0,0,7.108872996009678,0.0,3.0
1635635023.53125,0,0,0.0,0.0,3.0
1635635024.0,0,0,23.093528383300814,0.0,3.0
1635635024.46875,0,0,7.899083388575018,0.0,3.0
1635635024.9375,0,0,11.907776749541615,0.0,3.0
1635635025.40625,0,0,0.0,0.0,3.0
1635635025.875,0,0,14.195130998988324,0.0,3.0
1635635026.34375,0,0,0.0,0.0,3.0
1635635026.8125,0,0,4.614544314920889,0.0,3.0
1635635027.28125,0,0,9.226875408367032,0.0,3.0
1635635027.75,0,0,13.513478289642995,0.0,3.0
1635635028.21875,0,0,12.156043730300592,0.0,3.0
1635635028.6875,0,0,7.9829370900483365,0.0,3.0
1635635029.15625,0,0,9.981849056484103,0.0,3.0
1635635029.625,0,0,0.0,0.0,3.0
1635635030.09375,0,0,16.961992846137132,0.0,3.0
1635635030.5625,0,0,12.241709114908337,0.0,3.0
1635635031.03125,0,0,0.0,0.0,3.0
1635635031.5,0,0,18.800622607171903,0.0,3.0
1635635031.96875,0,0,-3.2865040121533,0.0,3.0
1635635032.4375,0,0,3.326861725343638,0.0,3.0
1635635032.90625,0,0,7.772733850987783,0.0,3.0
1635635033.375,0,0,9.533339490265123,0.0,3.0
1635635033.84375,0,0,5.317320492441759,0.0,3.0
1635635034.3125,0,0,8.60387521656134,0.0,3.0
1635635034.78125,0,0,4.294754938424297,0.0,3.0
1635635035.25,0,0,0.0,0.0,3.0
1635635035.71875,0,0,9.2283527880429,0.0,3.0
1635635036.1875,0,0,21.720225611169223,0.0,3.0
1635635036.65625,0,0,0.0,0.0,3.0
1635635037.125,0,0,5.840028300590263,0.0,3.0
1635635037.59375,0,0,15.546711540549843,0.0,3.0
1635635038.0625,0,0,10.599861267532425,0.0,3.0
1635635038.53125,0,0,11.302149381061037,0.0,3.0
1635635039.0,0,0,5.351738132751193,0.0,3.0
1635635039.46875,0,0,0.0,0.0,3.0
1635635039.9375,0,0,0.0,0.0,3.0
1635635040.40625,0,0,15.959653532721143,0.0,3.0
1635635040.875,0,0,0.0,0.0,3.0
1635635041.34375,0,0,5.634734782657177,0.0,3.0
1635635041.8125,0,0,0.0,0.0,3.0
1635635042.28125,0,0,7.158670500301258,0.0,3.0
1635635042.75,0,0,8.661834542536031,0.0,3.0
1635635043.21875,0,0,6.960716234994956,0.0,3.0
1635635043.6875,0,0,17.64359858367671,0.0,3.0
1635635044.15625,0,0,15.871116067760054,0.0,3.0
1635635044.625,0,0,12.187583524961772,0.0,3.0
1635635045.09375,0,0,0.0,0.0,3.0
1635635045.5625,0,0,22.020461546744393,0.0,3.0
1635635046.03125,0,0,18.659580094611854,0.0,3.0
1635635046.5,0,0,16.15022769518952,0.0,3.0
1635635046.96875,0,0,10.096093270150668,0.0,3.0
1635635047.4375,0,0,0.0,0.0,3.0
1635635047.90625,0,0,26.902373692797106,0.0,3.0
1635635048.375,0,0,-7.015387502217657,0.0,3.0
