timestamp,mean_pulse_rate,pulse_rate_std,mean_pulse_amplitude,pulse_amplitude_std,block
1635633704.9375,0,0,18.271245651636807,0.0,1.0
1635633705.40625,0,0,15.093094660575195,0.0,1.0
1635633705.875,0,0,201.4086903092482,0.0,1.0
1635633706.34375,0,0,0.0,0.0,1.0
1635633706.8125,0,0,67.93478398332005,0.0,1.0
1635633707.28125,0,0,78.15052292174634,0.0,1.0
1635633707.75,0,0,0.0,0.0,1.0
1635633708.21875,0,0,396.8187214486016,0.0,1.0
1635633708.6875,0,0,0.0,0.0,1.0
1635633709.15625,0,0,58.29306935433265,0.0,1.0
1635633709.625,0,0,186.76444189268318,0.0,1.0
1635633710.09375,0,0,0.0,0.0,1.0
1635633710.5625,0,0,231.79103561950382,0.0,1.0
1635633711.03125,0,0,0.0,0.0,1.0
1635633711.5,0,0,-34.361659260345384,0.0,1.0
1635633711.96875,0,0,-36.484220406938135,0.0,1.0
1635633712.4375,0,0,559.2390310516968,0.0,1.0
1635633712.90625,0,0,-88.30165972019142,0.0,1.0
1635633713.375,0,0,107.49896711159863,0.0,1.0
1635633713.84375,0,0,120.24624025261254,0.0,1.0
1635633714.3125,0,0,0.0,0.0,1.0
1635633714.78125,0,0,18.39361041125197,0.0,1.0
1635633715.25,0,0,59.60889739004253,0.0,1.0
1635633715.71875,0,0,233.75191005755872,0.0,1.0
1635633716.1875,0,0,36.90316627264314,0.0,1.0
1635633716.65625,0,0,33.198031711952545,0.0,1.0
1635633717.125,0,0,0.0,0.0,1.0
1635633717.59375,0,0,35.98216038601696,0.0,1.0
1635633718.0625,0,0,9.444971648101827,0.0,1.0
1635633718.53125,0,0,0.0,0.0,1.0
1635633719.0,0,0,-28.023198462982887,0.0,1.0
1635633719.46875,0,0,-25.62979317823087,0.0,1.0
1635633719.9375,0,0,291.18294089478565,0.0,1.0
1635633720.40625,0,0,32.08695967470649,0.0,1.0
1635633720.875,0,0,0.0,0.0,1.0
1635633721.34375,0,0,19.084818465963313,0.0,1.0
1635633721.8125,0,0,31.45634435586518,0.0,1.0
1635633722.28125,0,0,29.696950124042093,0.0,1.0
1635633722.75,0,0,0.0,0.0,1.0
1635633723.21875,0,0,28.614790421691108,0.0,1.0
1635633723.6875,0,0,24.833900815436866,0.0,1.0
1635633724.15625,0,0,0.0,0.0,1.0
1635633724.625,0,0,26.251551726280812,0.0,1.0
1635633725.09375,0,0,31.138085678829764,0.0,1.0
1635633725.5625,0,0,0.0,0.0,1.0
1635633726.03125,0,0,0.0,0.0,1.0
1635633726.5,0,0,83.5035678023719,0.0,1.0
1635633726.96875,0,0,31.49085006636568,0.0,1.0
1635633727.4375,0,0,285.2268372493494,0.0,1.0
1635633727.90625,0,0,22.560227485094906,0.0,1.0
1635633728.375,0,0,0.0,0.0,1.0
1635633728.84375,0,0,112.01805122069239,0.0,1.0
1635633729.3125,0,0,-12.730973117519794,0.0,1.0
1635633729.78125,0,0,60.34178305698403,0.0,1.0
1635633730.25,0,0,35.75060078222462,0.0,1.0
1635633730.71875,0,0,128.48279597410018,0.0,1.0
1635633731.1875,0,0,-20.8009055949901,0.0,1.0
1635633731.65625,0,0,30.66679672614428,0.0,1.0
1635633732.125,0,0,34.363682317449225,0.0,1.0
1635633732.59375,0,0,0.0,0.0,1.0
1635633733.0625,0,0,11.389972559685955,0.0,1.0
1635633733.53125,0,0,46.47098909211954,0.0,1.0
1635633734.0,0,0,9.524196383806265,0.0,1.0
1635633734.46875,0,0,16.209246626738324,0.0,1.0
1635633734.9375,0,0,35.826780347061906,0.0,1.0
1635633735.40625,0,0,15.780267351878182,0.0,1.0
1635633735.875,0,0,19.021196048980855,0.0,1.0
1635633736.34375,0,0,30.27260417746122,0.0,1.0
1635633736.8125,0,0,32.07734612314036,0.0,1.0
1635633737.28125,0,0,23.283756393254297,0.0,1.0
1635633737.75,0,0,23.535869684200105,0.0,1.0
1635633738.21875,0,0,35.25400335896464,0.0,1.0
1635633738.6875,0,0,38.5002214582833,0.0,1.0
1635633739.15625,0,0,104.8995442737072,0.0,1.0
1635633739.625,0,0,15.846268670499663,0.0,1.0
1635633740.09375,0,0,0.0,0.0,1.0
1635633740.5625,0,0,60.64800313432735,0.0,1.0
1635633741.03125,0,0,60.17388157901238,0.0,1.0
1635633741.5,0,0,32.50897257829678,0.0,1.0
1635633741.96875,0,0,0.0,0.0,1.0
1635633742.4375,0,0,60.3594320081687,0.0,1.0
1635633742.90625,0,0,38.000819568868785,0.0,1.0
1635633743.375,0,0,0.0,0.0,1.0
1635633743.84375,0,0,26.070332005646083,0.0,1.0
1635633744.3125,0,0,55.925406977887924,0.0,1.0
1635633744.78125,0,0,0.0,0.0,1.0
1635633745.25,0,0,23.3613194746398,0.0,1.0
1635633745.71875,0,0,26.653807260675634,0.0,1.0
1635633746.1875,0,0,0.0,0.0,1.0
1635633746.65625,0,0,27.635833359356045,0.0,1.0
1635633747.125,0,0,-8.991807216404382,0.0,1.0
1635633747.59375,0,0,29.166001500723272,0.0,1.0
1635633748.0625,0,0,0.0,0.0,1.0
1635633748.53125,0,0,32.87209356907146,0.0,1.0
1635633749.0,0,0,19.19722957649004,0.0,1.0
1635633749.46875,0,0,37.450562896659406,0.0,1.0
1635633749.9375,0,0,0.0,0.0,1.0
1635633750.40625,0,0,28.586682909372055,0.0,1.0
1635633750.875,0,0,67.66273833644715,0.0,1.0
1635633751.34375,0,0,0.0,0.0,1.0
1635633751.8125,0,0,24.464397995203726,0.0,1.0
1635633752.28125,0,0,63.467799409592516,0.0,1.0
1635633752.75,0,0,8.932238598087876,0.0,1.0
1635633753.21875,0,0,3.979835158036608,0.0,1.0
1635633753.6875,0,0,27.598749820336607,0.0,1.0
1635633754.15625,0,0,59.6103474084053,0.0,1.0
1635633754.625,0,0,9.07759856418426,0.0,1.0
1635633755.09375,0,0,10.959143779063377,0.0,1.0
1635633755.5625,0,0,29.89940615271384,0.0,1.0
1635633756.03125,0,0,51.526699648979886,0.0,1.0
1635633756.5,0,0,61.8390207153626,0.0,1.0
1635633756.96875,0,0,0.0,0.0,1.0
1635633757.4375,0,0,37.4959837363928,0.0,1.0
1635633757.90625,0,0,46.01093732400561,0.0,1.0
1635633758.375,0,0,84.29536117877696,0.0,1.0
1635633758.84375,0,0,25.276110852940985,0.0,1.0
1635633759.3125,0,0,28.86057351363101,0.0,1.0
1635633759.78125,0,0,14.53921457669587,0.0,1.0
1635633760.25,0,0,107.86505285582632,0.0,1.0
1635633760.71875,0,0,11.224238257886027,0.0,1.0
1635633761.1875,0,0,37.45040380552231,0.0,1.0
1635633761.65625,0,0,0.0,0.0,1.0
1635633762.125,0,0,31.53105837371634,0.0,1.0
1635633762.59375,0,0,34.85375347717712,0.0,1.0
1635633763.0625,0,0,41.19033042490902,0.0,1.0
1635633763.53125,0,0,0.0,0.0,1.0
1635633764.0,0,0,18.379700391879705,0.0,1.0
1635633764.46875,0,0,60.029742875025995,0.0,1.0
1635633764.9375,0,0,0.0,0.0,1.0
1635633765.40625,0,0,34.8550127009201,0.0,1.0
1635633765.875,0,0,63.34740060079438,0.0,1.0
1635633766.34375,0,0,-5.320956652442657,0.0,1.0
1635633766.8125,0,0,36.39192101706641,0.0,1.0
1635633767.28125,0,0,17.26042434218411,0.0,1.0
1635633767.75,0,0,0.0,0.0,1.0
1635633768.21875,0,0,53.928653260385865,0.0,1.0
1635633768.6875,0,0,21.88134919696819,0.0,1.0
1635633769.15625,0,0,0.0,0.0,1.0
1635633769.625,0,0,26.54148336171749,0.0,1.0
1635633770.09375,0,0,79.86656073337292,0.0,1.0
1635633770.5625,0,0,30.462459599871632,0.0,1.0
1635633771.03125,0,0,36.386734145664256,0.0,1.0
1635633771.5,0,0,25.533657687542142,0.0,1.0
1635633771.96875,0,0,65.04286147539275,0.0,1.0
1635633772.4375,0,0,20.078504964542205,0.0,1.0
1635633772.90625,0,0,27.85403441580425,0.0,1.0
1635633773.375,0,0,29.267069180257963,0.0,1.0
1635633773.84375,0,0,0.0,0.0,1.0
1635633774.3125,0,0,61.268182475541046,0.0,1.0
1635633774.78125,0,0,31.43923613305938,0.0,1.0
1635633775.25,0,0,0.0,0.0,1.0
1635633775.71875,0,0,25.318329922945583,0.0,1.0
1635633776.1875,0,0,46.15531501976134,0.0,1.0
1635633776.65625,0,0,0.0,0.0,1.0
1635633777.125,0,0,0.0,0.0,1.0
1635633777.59375,0,0,333.04653330573706,0.0,1.0
1635633778.0625,0,0,0.0,0.0,1.0
1635633778.53125,0,0,110.11421077792272,0.0,1.0
1635633779.0,0,0,84.68643387220204,0.0,1.0
1635633779.46875,0,0,33.8593723580578,0.0,1.0
1635633779.9375,0,0,14.518426292456544,0.0,1.0
1635633780.40625,0,0,0.0,0.0,1.0
1635633780.875,0,0,14.869583305976086,0.0,1.0
1635633781.34375,0,0,36.275098696254666,0.0,1.0
1635633781.8125,0,0,19.24187001185813,0.0,1.0
1635633782.28125,0,0,19.205295980132963,0.0,1.0
1635633782.75,0,0,0.0,0.0,1.0
1635633783.21875,0,0,17.89014310715866,0.0,1.0
1635633783.6875,0,0,16.254993743096126,0.0,1.0
1635633784.15625,0,0,13.24722284817438,0.0,1.0
1635633784.625,0,0,14.160669771534351,0.0,1.0
1635633785.09375,0,0,0.0,0.0,1.0
1635633785.5625,0,0,10.483993783393087,0.0,1.0
1635633786.03125,0,0,10.303757665718269,0.0,1.0
1635633786.5,0,0,0.0,0.0,1.0
1635633786.96875,0,0,12.621538256836242,0.0,1.0
1635633787.4375,0,0,11.160104323078428,0.0,1.0
1635633787.90625,0,0,0.0,0.0,1.0
1635633788.375,0,0,17.688026106326117,0.0,1.0
1635633788.84375,0,0,17.069586312455545,0.0,1.0
1635633789.3125,0,0,0.0,0.0,1.0
1635633789.78125,0,0,16.13221957007764,0.0,1.0
1635633790.25,0,0,32.77901434325374,0.0,1.0
1635633790.71875,0,0,73.98415296786165,0.0,1.0
1635633791.1875,0,0,0.0,0.0,1.0
1635633791.65625,0,0,40.81437553983477,0.0,1.0
1635633792.125,0,0,8.352591427490779,0.0,1.0
1635633792.59375,0,0,31.59678858885296,0.0,1.0
1635633793.0625,0,0,51.23569745755173,0.0,1.0
1635633793.53125,0,0,56.57272425927057,0.0,1.0
1635633794.0,0,0,0.0,0.0,1.0
1635633794.46875,0,0,23.369303238062145,0.0,1.0
1635633794.9375,0,0,26.945191553088247,0.0,1.0
1635633795.40625,0,0,37.673370190156966,0.0,1.0
1635633795.875,0,0,0.0,0.0,1.0
1635633796.34375,0,0,23.62073327254347,0.0,1.0
1635633796.8125,0,0,0.0,0.0,1.0
1635633797.28125,0,0,55.49651320370271,0.0,1.0
1635633797.75,0,0,0.0,0.0,1.0
1635633798.21875,0,0,-7.64200733811711,0.0,1.0
1635633798.6875,0,0,250.62113242825262,0.0,1.0
1635633799.15625,0,0,-114.14522754066036,0.0,1.0
1635633799.625,0,0,44.559573890774956,0.0,1.0
1635633800.09375,0,0,44.76336660291158,0.0,1.0
1635633800.5625,0,0,0.0,0.0,1.0
1635633801.03125,0,0,0.0,0.0,1.0
1635633801.5,0,0,11.44032575140101,0.0,1.0
1635633801.96875,0,0,45.712382457433826,0.0,1.0
1635633802.4375,0,0,0.0,0.0,1.0
1635633802.90625,0,0,32.91200166493741,0.0,1.0
1635633803.375,0,0,31.41048296641782,0.0,1.0
1635633803.84375,0,0,0.0,0.0,1.0
1635633804.3125,0,0,40.082678189384445,0.0,1.0
1635633804.78125,0,0,28.58866375639947,0.0,1.0
1635633805.25,0,0,36.05966309820182,0.0,1.0
1635633805.71875,0,0,32.59304047692306,0.0,1.0
1635633806.1875,0,0,41.83908790164549,0.0,1.0
1635633806.65625,0,0,37.900213406231394,0.0,1.0
1635633807.125,0,0,0.0,0.0,1.0
1635633807.59375,0,0,0.0,0.0,1.0
1635633808.0625,0,0,101.28221758202078,0.0,1.0
1635633808.53125,0,0,29.46846937877591,0.0,1.0
1635633809.0,0,0,0.0,0.0,1.0
1635633809.46875,0,0,58.86734748846148,0.0,1.0
1635633809.9375,0,0,19.193598428165995,0.0,1.0
1635633810.40625,0,0,0.0,0.0,1.0
1635633810.875,0,0,44.23236464948157,0.0,1.0
1635633811.34375,0,0,32.21585627059321,0.0,1.0
1635633811.8125,0,0,0.0,0.0,1.0
1635633812.28125,0,0,70.2060536643358,0.0,1.0
1635633812.75,0,0,27.880925298559404,0.0,1.0
1635633813.21875,0,0,0.0,0.0,1.0
1635633813.6875,0,0,41.9081411579303,0.0,1.0
1635633814.15625,0,0,49.52021927120628,0.0,1.0
1635633814.625,0,0,36.3550815731768,0.0,1.0
1635633815.09375,0,0,41.23813007781286,0.0,1.0
1635633815.5625,0,0,0.0,0.0,1.0
1635633816.03125,0,0,26.078972528955063,0.0,1.0
1635633816.5,0,0,67.16946277825267,0.0,1.0
1635633816.96875,0,0,-39.22905859359918,0.0,1.0
1635633817.4375,0,0,36.48482461782039,0.0,1.0
1635633817.90625,0,0,25.919056547064802,0.0,1.0
1635633818.375,0,0,12.521311462436683,0.0,1.0
1635633818.84375,0,0,28.951172860678597,0.0,1.0
1635633819.3125,0,0,28.847810785545864,0.0,1.0
1635633819.78125,0,0,54.31312017066723,0.0,1.0
1635633820.25,0,0,0.0,0.0,1.0
1635633820.71875,0,0,25.462050516114605,0.0,1.0
1635633821.1875,0,0,44.27145686969471,0.0,1.0
1635633821.65625,0,0,9.535198110809075,0.0,1.0
1635633822.125,0,0,0.0,0.0,1.0
1635633822.59375,0,0,35.668769159286306,0.0,1.0
1635633823.0625,0,0,42.62018378725523,0.0,1.0
1635633823.53125,0,0,43.97341535740463,0.0,1.0
1635633824.0,0,0,36.163212707405414,0.0,1.0
1635633824.46875,0,0,42.024328177829865,0.0,1.0
1635633824.9375,0,0,0.0,0.0,1.0
1635633825.40625,0,0,23.988745937852165,0.0,1.0
1635633825.875,0,0,147.0149889344215,0.0,1.0
1635633826.34375,0,0,32.067762320932715,0.0,1.0
1635633826.8125,0,0,34.275592511601715,0.0,1.0
1635633827.28125,0,0,64.60625324758968,0.0,1.0
1635633827.75,0,0,58.14354867461738,0.0,1.0
1635633828.21875,0,0,34.08650816012336,0.0,1.0
1635633828.6875,0,0,0.0,0.0,1.0
1635633829.15625,0,0,36.416160311859834,0.0,1.0
1635633829.625,0,0,45.62400736732305,0.0,1.0
1635633830.09375,0,0,0.0,0.0,1.0
1635633830.5625,0,0,0.0,0.0,1.0
1635633831.03125,0,0,24.585749824708163,0.0,1.0
1635633831.5,0,0,31.49499958145651,0.0,1.0
1635633831.96875,0,0,55.51034188150504,0.0,1.0
1635633832.4375,0,0,0.0,0.0,1.0
1635633832.90625,0,0,34.07463732268249,0.0,1.0
1635633833.375,0,0,59.26360541655073,0.0,1.0
1635633833.84375,0,0,0.0,0.0,1.0
1635633834.3125,0,0,17.17295523711818,0.0,1.0
1635633834.78125,0,0,0.0,0.0,1.0
1635633835.25,0,0,9.833941765765534,0.0,1.0
1635633835.71875,0,0,471.2384737300349,0.0,1.0
1635633836.1875,0,0,201.4092461590405,0.0,1.0
1635633836.65625,0,0,0.0,0.0,1.0
1635633837.125,0,0,38.546312801305454,0.0,1.0
1635633837.59375,0,0,0.0,0.0,1.0
1635633838.0625,0,0,0.0,0.0,1.0
1635633838.53125,0,0,0.0,0.0,1.0
1635633839.0,0,0,40.38035522264954,0.0,1.0
1635633839.46875,0,0,0.0,0.0,1.0
1635633839.9375,0,0,41.55679034595076,0.0,1.0
1635633840.40625,0,0,27.39248405417839,0.0,1.0
1635633840.875,0,0,0.0,0.0,1.0
1635633841.34375,0,0,0.0,0.0,1.0
1635633841.8125,0,0,29.8311517283141,0.0,1.0
1635633842.28125,0,0,31.2082461360186,0.0,1.0
1635633842.75,0,0,0.0,0.0,1.0
1635633843.21875,0,0,28.184975501214954,0.0,1.0
1635633843.6875,0,0,20.835349571493378,0.0,1.0
1635633844.15625,0,0,0.0,0.0,1.0
1635633844.625,0,0,18.47070081663559,0.0,1.0
1635633845.09375,0,0,66.87187357455065,0.0,1.0
1635633845.5625,0,0,0.0,0.0,1.0
1635633846.03125,0,0,39.179748814037126,0.0,1.0
1635633846.5,0,0,22.167743072457714,0.0,1.0
1635633846.96875,0,0,0.0,0.0,1.0
1635633847.4375,0,0,18.315809422949542,0.0,1.0
1635633847.90625,0,0,26.731897932412842,0.0,1.0
1635633848.375,0,0,9.25544182340405,0.0,1.0
1635633848.84375,0,0,0.0,0.0,1.0
1635633849.3125,0,0,177.39962209736558,0.0,1.0
1635633849.78125,0,0,168.10433867808302,0.0,1.0
1635633850.25,0,0,0.0,0.0,1.0
1635633850.71875,0,0,144.73720194810159,0.0,1.0
1635633851.1875,0,0,151.344526483055,0.0,1.0
1635633851.65625,0,0,62.00266700523529,0.0,1.0
1635633852.125,0,0,0.0,0.0,1.0
1635633852.59375,0,0,0.0,0.0,1.0
1635633853.0625,0,0,30.29497318785929,0.0,1.0
1635633853.53125,0,0,23.01633953105804,0.0,1.0
1635633854.0,0,0,0.0,0.0,1.0
1635633854.46875,0,0,8.352213660685347,0.0,1.0
1635633854.9375,0,0,-14.542498550446632,0.0,1.0
1635633855.40625,0,0,69.93733208482047,0.0,1.0
1635633855.875,0,0,-0.6091032788911206,0.0,1.0
1635633856.34375,0,0,97.18809299890296,0.0,1.0
1635633856.8125,0,0,0.0,0.0,1.0
1635633857.28125,0,0,41.81403327604235,0.0,1.0
1635633857.75,0,0,24.043536056112814,0.0,1.0
1635633858.21875,0,0,0.0,0.0,1.0
1635633858.6875,0,0,98.33304837755729,0.0,1.0
1635633859.15625,0,0,22.60138518917585,0.0,1.0
1635633859.625,0,0,34.98763965071168,0.0,1.0
1635633860.09375,0,0,0.0,0.0,1.0
1635633860.5625,0,0,108.28529319588769,0.0,1.0
1635633861.03125,0,0,45.33325125842155,0.0,1.0
1635633861.5,0,0,35.79584657922611,0.0,1.0
1635633861.96875,0,0,0.0,0.0,1.0
1635633862.4375,0,0,17.002446122629713,0.0,1.0
1635633862.90625,0,0,101.10615526368746,0.0,1.0
1635633863.375,0,0,0.0,0.0,1.0
1635633863.84375,0,0,42.67395212253467,0.0,1.0
1635633864.3125,0,0,41.4210755946668,0.0,1.0
1635633864.78125,0,0,51.8696953802249,0.0,1.0
1635633865.25,0,0,6.496976861902353,0.0,1.0
1635633865.71875,0,0,51.79299800018929,0.0,1.0
1635633866.1875,0,0,13.993809328136527,0.0,1.0
1635633866.65625,0,0,0.0,0.0,1.0
1635633867.125,0,0,151.3741891836221,0.0,1.0
1635633867.59375,0,0,68.2838104728048,0.0,1.0
1635633868.0625,0,0,15.54955488739968,0.0,1.0
1635633868.53125,0,0,0.0,0.0,1.0
1635633869.0,0,0,138.52289943192082,0.0,1.0
1635633869.46875,0,0,0.0,0.0,1.0
1635633869.9375,0,0,0.0,0.0,1.0
1635633870.40625,0,0,36.94149156556974,0.0,1.0
1635633870.875,0,0,49.2274676084071,0.0,1.0
1635633871.34375,0,0,39.133579281280916,0.0,1.0
1635633871.8125,0,0,-14.032809584224694,0.0,1.0
1635633872.28125,0,0,42.50997616905301,0.0,1.0
1635633872.75,0,0,0.0,0.0,1.0
1635633873.21875,0,0,87.33103932064027,0.0,1.0
1635633873.6875,0,0,10.696105257189972,0.0,1.0
1635633874.15625,0,0,30.42944724879951,0.0,1.0
1635633874.625,0,0,28.48545397073265,0.0,1.0
1635633875.09375,0,0,137.47275598706608,0.0,1.0
1635633875.5625,0,0,46.64551551838231,0.0,1.0
1635633876.03125,0,0,0.0,0.0,1.0
1635633876.5,0,0,42.70712895949969,0.0,1.0
1635633876.96875,0,0,158.45364418985915,0.0,1.0
1635633877.4375,0,0,79.01179416018245,0.0,1.0
1635633877.90625,0,0,0.0,0.0,1.0
1635633878.375,0,0,47.172815274956065,0.0,1.0
1635633878.84375,0,0,0.0,0.0,1.0
1635633879.3125,0,0,4.319605531224197,0.0,1.0
1635633879.78125,0,0,51.584427463119404,0.0,1.0
1635633880.25,0,0,12.422899377701082,0.0,1.0
1635633880.71875,0,0,0.0,0.0,1.0
1635633881.1875,0,0,111.16703795859884,0.0,1.0
1635633881.65625,0,0,39.02340094129326,0.0,1.0
1635633882.125,0,0,29.545063959955655,0.0,1.0
1635633882.59375,0,0,0.0,0.0,1.0
1635633883.0625,0,0,100.64638269299064,0.0,1.0
1635633883.53125,0,0,0.0,0.0,1.0
1635633884.0,0,0,0.0,0.0,1.0
1635633884.46875,0,0,20.942753557684064,0.0,1.0
1635633884.9375,0,0,155.83747767920403,0.0,1.0
1635633885.40625,0,0,0.0,0.0,1.0
1635633885.875,0,0,79.93613602890035,0.0,1.0
1635633886.34375,0,0,25.99319845976591,0.0,1.0
1635633886.8125,0,0,0.0,0.0,1.0
1635633887.28125,0,0,164.43320726133643,0.0,1.0
1635633887.75,0,0,86.41086548039934,0.0,1.0
1635633888.21875,0,0,0.0,0.0,1.0
1635633888.6875,0,0,0.0,0.0,1.0
1635633889.15625,0,0,0.0,0.0,1.0
1635633889.625,0,0,29.45997290600655,0.0,1.0
1635633890.09375,0,0,16.242234969372948,0.0,1.0
1635633890.5625,0,0,31.334356826896602,0.0,1.0
1635633891.03125,0,0,0.0,0.0,1.0
1635633891.5,0,0,91.59990510299434,0.0,1.0
1635633891.96875,0,0,0.0,0.0,1.0
1635633892.4375,0,0,58.06792157790714,0.0,1.0
1635633892.90625,0,0,0.0,0.0,1.0
1635633893.375,0,0,9.13851606915609,0.0,1.0
1635633893.84375,0,0,0.0,0.0,1.0
1635633894.3125,0,0,10.360188371585066,0.0,1.0
1635633894.78125,0,0,153.27860858954296,0.0,1.0
1635633895.25,0,0,140.3873629834541,0.0,1.0
1635633895.71875,0,0,0.0,0.0,1.0
1635633896.1875,0,0,294.1184142762165,0.0,1.0
1635633896.65625,0,0,0.0,0.0,1.0
1635633897.125,0,0,49.04235700941405,0.0,1.0
1635633897.59375,0,0,32.515050409533934,0.0,1.0
1635633898.0625,0,0,24.90659245523796,0.0,1.0
1635633898.53125,0,0,10.009288011333338,0.0,1.0
1635633899.0,0,0,0.0,0.0,1.0
1635633899.46875,0,0,0.0,0.0,1.0
1635633899.9375,0,0,25.88641370850446,0.0,1.0
1635633900.40625,0,0,23.540113567994688,0.0,1.0
1635633900.875,0,0,0.0,0.0,1.0
1635633901.34375,0,0,19.682829562907937,0.0,1.0
1635633901.8125,0,0,19.814915825790695,0.0,1.0
1635633902.28125,0,0,0.0,0.0,1.0
1635633902.75,0,0,24.746377026291494,0.0,1.0
1635633903.21875,0,0,0.0,0.0,1.0
1635633903.6875,0,0,16.749353970317816,0.0,1.0
1635633904.15625,0,0,23.550112323796412,0.0,1.0
1635633904.625,0,0,0.0,0.0,1.0
1635633905.09375,0,0,17.5597319802345,0.0,1.0
1635633905.5625,0,0,1.9672606934883303,0.0,1.0
1635633906.03125,0,0,113.24102225668074,0.0,1.0
1635633906.5,0,0,114.87567579965601,0.0,1.0
1635633906.96875,0,0,53.0894060783588,0.0,1.0
1635633907.4375,0,0,0.0,0.0,1.0
1635633907.90625,0,0,0.0,0.0,1.0
1635633908.375,0,0,27.752274921130894,0.0,1.0
1635633908.84375,0,0,11.18586521074819,0.0,1.0
1635633909.3125,0,0,0.0,0.0,1.0
1635633909.78125,0,0,0.0,0.0,1.0
1635633910.25,0,0,82.23967188020902,0.0,1.0
1635633910.71875,0,0,0.0,0.0,1.0
1635633911.1875,0,0,40.19772500007985,0.0,1.0
1635633911.65625,0,0,108.32548337130876,0.0,1.0
1635633912.125,0,0,0.0,0.0,1.0
1635633912.59375,0,0,48.908574442225714,0.0,1.0
1635633913.0625,0,0,25.643858914612984,0.0,1.0
1635633913.53125,0,0,0.0,0.0,1.0
1635633914.0,0,0,0.0,0.0,1.0
1635633914.46875,0,0,33.63031359811115,0.0,1.0
1635633914.9375,0,0,0.0,0.0,1.0
1635633915.40625,0,0,29.1623742406385,0.0,1.0
1635633915.875,0,0,56.09902773625771,0.0,1.0
1635633916.34375,0,0,0.0,0.0,1.0
1635633916.8125,0,0,30.72897633932612,0.0,1.0
1635633917.28125,0,0,21.181615868809676,0.0,1.0
1635633917.75,0,0,0.0,0.0,1.0
1635633918.21875,0,0,61.469304031233925,0.0,1.0
1635633918.6875,0,0,48.665747277788846,0.0,1.0
1635633919.15625,0,0,0.0,0.0,1.0
1635633919.625,0,0,35.54458512556067,0.0,1.0
1635633920.09375,0,0,60.1442117805892,0.0,1.0
1635633920.5625,0,0,0.0,0.0,1.0
1635633921.03125,0,0,26.892108603158608,0.0,1.0
1635633921.5,0,0,62.15757586984356,0.0,1.0
1635633921.96875,0,0,10.115252680896171,0.0,1.0
1635633922.4375,0,0,28.719131798564344,0.0,1.0
1635633922.90625,0,0,28.455402468387298,0.0,1.0
1635633923.375,0,0,0.0,0.0,1.0
1635633923.84375,0,0,47.152088739200586,0.0,1.0
1635633924.3125,0,0,46.713896899798364,0.0,1.0
1635633924.78125,0,0,0.0,0.0,1.0
1635633925.25,0,0,21.53818812815216,0.0,1.0
1635633925.71875,0,0,97.9106025428944,0.0,1.0
1635633926.1875,0,0,0.0,0.0,1.0
1635633926.65625,0,0,34.93311249915063,0.0,1.0
1635633927.125,0,0,0.0,0.0,1.0
1635633927.59375,0,0,35.718645544034786,0.0,1.0
1635633928.0625,0,0,38.70378401978405,0.0,1.0
1635633928.53125,0,0,0.0,0.0,1.0
1635633929.0,0,0,0.0,0.0,1.0
1635633929.46875,0,0,33.950387043722955,0.0,1.0
1635633929.9375,0,0,72.2959248320654,0.0,1.0
1635633930.40625,0,0,-53.25281539398642,0.0,1.0
1635633930.875,0,0,40.92922984389747,0.0,1.0
1635633931.34375,0,0,0.0,0.0,1.0
1635633931.8125,0,0,83.30024218012454,0.0,1.0
1635633932.28125,0,0,55.887263665457894,0.0,1.0
1635633932.75,0,0,36.17448786362834,0.0,1.0
1635633933.21875,0,0,0.0,0.0,1.0
1635633933.6875,0,0,37.047835432876504,0.0,1.0
1635633934.15625,0,0,49.639739101343416,0.0,1.0
1635633934.625,0,0,36.13289394200208,0.0,1.0
1635633935.09375,0,0,0.0,0.0,1.0
1635633935.5625,0,0,0.0,0.0,1.0
1635633936.03125,0,0,85.89971066256976,0.0,1.0
1635633936.5,0,0,50.750703012959264,0.0,1.0
1635633936.96875,0,0,37.46681959615429,0.0,1.0
1635633937.4375,0,0,0.0,0.0,1.0
1635633937.90625,0,0,0.0,0.0,1.0
1635633938.375,0,0,69.50833780311378,0.0,1.0
1635633938.84375,0,0,29.69399481243496,0.0,1.0
1635633939.3125,0,0,0.0,0.0,1.0
1635633939.78125,0,0,72.6292986911053,0.0,1.0
1635633940.25,0,0,31.52259959317532,0.0,1.0
1635633940.71875,0,0,0.0,0.0,1.0
1635633941.1875,0,0,30.339028310226855,0.0,1.0
1635633941.65625,0,0,30.883846005040322,0.0,1.0
1635633942.125,0,0,29.640075086365727,0.0,1.0
1635633942.59375,0,0,29.317692094179215,0.0,1.0
1635633943.0625,0,0,32.718287816367905,0.0,1.0
1635633943.53125,0,0,0.0,0.0,1.0
1635633944.0,0,0,55.68517974868073,0.0,1.0
1635633944.46875,0,0,0.0,0.0,1.0
1635633944.9375,0,0,0.0,0.0,1.0
1635633945.40625,0,0,21.324189004385822,0.0,1.0
1635633945.875,0,0,137.3315746861136,0.0,1.0
1635633946.34375,0,0,0.0,0.0,1.0
1635633946.8125,0,0,48.36428693263605,0.0,1.0
1635633947.28125,0,0,33.20895023564139,0.0,1.0
1635633947.75,0,0,39.011208991171465,0.0,1.0
1635633948.21875,0,0,68.04360916635406,0.0,1.0
1635633948.6875,0,0,50.71865606716234,0.0,1.0
1635633949.15625,0,0,42.589379873497904,0.0,1.0
1635633949.625,0,0,0.0,0.0,1.0
1635633950.09375,0,0,56.798377374900305,0.0,1.0
1635633950.5625,0,0,79.94507931953598,0.0,1.0
1635633951.03125,0,0,0.0,0.0,1.0
1635633951.5,0,0,30.09334765905978,0.0,1.0
1635633951.96875,0,0,11.203336887736537,0.0,1.0
1635633952.4375,0,0,45.73263881314239,0.0,1.0
1635633952.90625,0,0,29.261522753393564,0.0,1.0
1635633953.375,0,0,36.70056535466747,0.0,1.0
1635633953.84375,0,0,0.0,0.0,1.0
1635633954.3125,0,0,159.52475869137658,0.0,1.0
1635633954.78125,0,0,86.50671256507378,0.0,1.0
1635633955.25,0,0,0.0,0.0,1.0
1635633955.71875,0,0,0.0,0.0,1.0
1635633956.1875,0,0,28.031785608571816,0.0,1.0
1635633956.65625,0,0,18.742202505486414,0.0,1.0
1635633957.125,0,0,0.0,0.0,1.0
1635633957.59375,0,0,22.659315504547173,0.0,1.0
1635633958.0625,0,0,25.984959072324035,0.0,1.0
1635633958.53125,0,0,27.66330626953453,0.0,1.0
1635633959.0,0,0,0.0,0.0,1.0
1635633959.46875,0,0,26.3768711878103,0.0,1.0
1635633959.9375,0,0,22.310364020304362,0.0,1.0
1635633960.40625,0,0,0.0,0.0,1.0
1635633960.875,0,0,20.47059163601827,0.0,1.0
1635633961.34375,0,0,0.0,0.0,1.0
1635633961.8125,0,0,22.060282817488634,0.0,1.0
1635633962.28125,0,0,20.671397076124247,0.0,1.0
1635633962.75,0,0,0.0,0.0,1.0
1635633963.21875,0,0,21.01140501006814,0.0,1.0
1635633963.6875,0,0,13.727694818536682,0.0,1.0
1635633964.15625,0,0,15.750819811199856,0.0,1.0
1635633964.625,0,0,0.0,0.0,1.0
1635633965.09375,0,0,19.016563744350282,0.0,1.0
1635633965.5625,0,0,80.43774012340846,0.0,1.0
1635633966.03125,0,0,0.0,0.0,1.0
1635633966.5,0,0,141.09399214764926,0.0,1.0
1635633966.96875,0,0,27.709109239105416,0.0,1.0
1635633967.4375,0,0,0.0,0.0,1.0
1635633967.90625,0,0,67.63447460539537,0.0,1.0
1635633968.375,0,0,14.876540914797202,0.0,1.0
1635633968.84375,0,0,53.52191389193253,0.0,1.0
1635633969.3125,0,0,50.37325538853607,0.0,1.0
1635633969.78125,0,0,37.33232520463621,0.0,1.0
1635633970.25,0,0,0.0,0.0,1.0
1635633970.71875,0,0,43.23439281360279,0.0,1.0
1635633971.1875,0,0,46.23206675714276,0.0,1.0
1635633971.65625,0,0,26.851001375300427,0.0,1.0
1635633972.125,0,0,0.0,0.0,1.0
1635633972.59375,0,0,33.84042877994295,0.0,1.0
1635633973.0625,0,0,37.69263226813304,0.0,1.0
1635633973.53125,0,0,0.0,0.0,1.0
1635633974.0,0,0,0.0,0.0,1.0
1635633974.46875,0,0,31.940592429222498,0.0,1.0
1635633974.9375,0,0,28.633578151591696,0.0,1.0
1635633975.40625,0,0,26.1519508092822,0.0,1.0
1635633975.875,0,0,66.11319081494776,0.0,1.0
1635633976.34375,0,0,28.532523858058735,0.0,1.0
1635633976.8125,0,0,0.0,0.0,1.0
1635633977.28125,0,0,33.90829644197081,0.0,1.0
1635633977.75,0,0,31.685712433165655,0.0,1.0
1635633978.21875,0,0,0.0,0.0,1.0
1635633978.6875,0,0,0.0,0.0,1.0
1635633979.15625,0,0,36.91989550326668,0.0,1.0
1635633979.625,0,0,-8.207203067632834,0.0,1.0
1635633980.09375,0,0,38.07049666243854,0.0,1.0
1635633980.5625,0,0,29.601581093434152,0.0,1.0
1635633981.03125,0,0,34.15538152126392,0.0,1.0
1635633981.5,0,0,28.425474906616014,0.0,1.0
1635633981.96875,0,0,38.39760286508866,0.0,1.0
1635633982.4375,0,0,33.729248521642376,0.0,1.0
1635633982.90625,0,0,0.0,0.0,1.0
1635633983.375,0,0,28.622819152219318,0.0,1.0
1635633983.84375,0,0,56.142017462178046,0.0,1.0
1635633984.3125,0,0,0.0,0.0,1.0
1635633984.78125,0,0,37.81568972509719,0.0,1.0
1635633985.25,0,0,38.40982849942495,0.0,1.0
1635633985.71875,0,0,0.0,0.0,1.0
1635633986.1875,0,0,82.90366537076507,0.0,1.0
1635633986.65625,0,0,32.34722131172656,0.0,1.0
1635633987.125,0,0,0.0,0.0,1.0
1635633987.59375,0,0,51.48543614309002,0.0,1.0
1635633988.0625,0,0,0.0,0.0,1.0
1635633988.53125,0,0,7.909984890004854,0.0,1.0
1635633989.0,0,0,37.641921290002806,0.0,1.0
1635633989.46875,0,0,36.378504116551454,0.0,1.0
1635633989.9375,0,0,0.0,0.0,1.0
1635633990.40625,0,0,75.70240723404572,0.0,1.0
1635633990.875,0,0,38.010978875594695,0.0,1.0
1635633991.34375,0,0,0.0,0.0,1.0
1635633991.8125,0,0,51.92371542528118,0.0,1.0
1635633992.28125,0,0,32.275562509222645,0.0,1.0
1635633992.75,0,0,0.0,0.0,1.0
1635633993.21875,0,0,-1.6776203803062688,0.0,1.0
1635633993.6875,0,0,35.244560788655576,0.0,1.0
1635633994.15625,0,0,0.0,0.0,1.0
1635633994.625,0,0,40.39731219778556,0.0,1.0
1635633995.09375,0,0,51.49485437803534,0.0,1.0
1635633995.5625,0,0,0.0,0.0,1.0
1635633996.03125,0,0,84.43595927066222,0.0,1.0
1635633996.5,0,0,50.150947874047894,0.0,1.0
1635633996.96875,0,0,47.18034486219729,0.0,1.0
1635633997.4375,0,0,50.906777603936874,0.0,1.0
1635633997.90625,0,0,32.11831639984619,0.0,1.0
1635633998.375,0,0,0.0,0.0,1.0
1635633998.84375,0,0,30.007707155583617,0.0,1.0
1635633999.3125,0,0,34.12353618090508,0.0,1.0
1635633999.78125,0,0,0.0,0.0,1.0
1635634000.25,0,0,0.0,0.0,1.0
1635634000.71875,0,0,39.39964870359364,0.0,1.0
1635634001.1875,0,0,63.31755497059736,0.0,1.0
1635634001.65625,0,0,6.0961866490909795,0.0,1.0
1635634002.125,0,0,31.275966307701868,0.0,1.0
1635634002.59375,0,0,50.05935003267575,0.0,1.0
1635634003.0625,0,0,0.0,0.0,1.0
1635634003.53125,0,0,110.32169260328584,0.0,1.0
1635634004.0,0,0,34.959042591948496,0.0,1.0
1635634004.46875,0,0,0.0,0.0,1.0
1635634004.9375,0,0,32.37957300735089,0.0,1.0
1635634005.40625,0,0,90.32340578774698,0.0,1.0
1635634005.875,0,0,0.0,0.0,1.0
1635634006.34375,0,0,38.88704854630892,0.0,1.0
1635634006.8125,0,0,33.63977840194634,0.0,1.0
1635634007.28125,0,0,0.0,0.0,1.0
1635634007.75,0,0,58.93767700108438,0.0,1.0
1635634008.21875,0,0,39.88096231584793,0.0,1.0
1635634008.6875,0,0,0.0,0.0,1.0
1635634009.15625,0,0,39.69103993060015,0.0,1.0
1635634009.625,0,0,21.26600868785881,0.0,1.0
1635634010.09375,0,0,0.0,0.0,1.0
1635634010.5625,0,0,38.88238311624307,0.0,1.0
1635634011.03125,0,0,51.51108295756485,0.0,1.0
1635634011.5,0,0,0.0,0.0,1.0
1635634011.96875,0,0,34.73758863003096,0.0,1.0
1635634012.4375,0,0,44.21616499038654,0.0,1.0
1635634012.90625,0,0,22.492332461655334,0.0,1.0
1635634013.375,0,0,109.35939299108894,0.0,1.0
1635634013.84375,0,0,142.60651422270644,0.0,1.0
1635634014.3125,0,0,0.0,0.0,1.0
1635634014.78125,0,0,20.180229811572275,0.0,1.0
1635634015.25,0,0,46.02802107084708,0.0,1.0
1635634015.71875,0,0,23.798935016551162,0.0,1.0
1635634016.1875,0,0,0.0,0.0,1.0
1635634016.65625,0,0,32.5424575079899,0.0,1.0
1635634017.125,0,0,0.0,0.0,1.0
1635634017.59375,0,0,12.645474723399202,0.0,1.0
1635634018.0625,0,0,29.13451194990396,0.0,1.0
1635634018.53125,0,0,29.384544341053527,0.0,1.0
1635634019.0,0,0,0.0,0.0,1.0
1635634019.46875,0,0,28.197624635512405,0.0,1.0
1635634019.9375,0,0,22.991912213255276,0.0,1.0
1635634020.40625,0,0,0.0,0.0,1.0
1635634020.875,0,0,22.643443982212474,0.0,1.0
1635634021.34375,0,0,25.65527308181066,0.0,1.0
1635634021.8125,0,0,0.0,0.0,1.0
1635634022.28125,0,0,27.186416685697775,0.0,1.0
1635634022.75,0,0,23.027289401619793,0.0,1.0
1635634023.21875,0,0,20.510217449977176,0.0,1.0
1635634023.6875,0,0,0.0,0.0,1.0
1635634024.15625,0,0,32.94237198181394,0.0,1.0
1635634024.625,0,0,32.19693944409831,0.0,1.0
1635634025.09375,0,0,18.03194681045341,0.0,1.0
1635634025.5625,0,0,13.282418785485612,0.0,1.0
1635634026.03125,0,0,42.15864419214633,0.0,1.0
1635634026.5,0,0,46.85475845476901,0.0,1.0
1635634026.96875,0,0,28.376480732432665,0.0,1.0
1635634027.4375,0,0,49.73438936268542,0.0,1.0
1635634027.90625,0,0,19.896232637091657,0.0,1.0
1635634028.375,0,0,76.43479907365237,0.0,1.0
1635634028.84375,0,0,64.23488521294165,0.0,1.0
1635634029.3125,0,0,37.70829843016988,0.0,1.0
1635634029.78125,0,0,27.268559494384583,0.0,1.0
1635634030.25,0,0,-23.139120071297565,0.0,1.0
1635634030.71875,0,0,44.98559042087679,0.0,1.0
1635634031.1875,0,0,14.865264393595023,0.0,1.0
1635634031.65625,0,0,0.0,0.0,1.0
1635634032.125,0,0,70.51091372695153,0.0,1.0
1635634032.59375,0,0,36.69969673597805,0.0,1.0
1635634033.0625,0,0,24.10983185493251,0.0,1.0
1635634033.53125,0,0,0.0,0.0,1.0
1635634034.0,0,0,6.468967636968015,0.0,1.0
1635634034.46875,0,0,65.69068821876488,0.0,1.0
1635634034.9375,0,0,0.0,0.0,1.0
1635634035.40625,0,0,5.6430088021103355,0.0,1.0
1635634035.875,0,0,124.16859583204527,0.0,1.0
1635634036.34375,0,0,0.0,0.0,1.0
1635634036.8125,0,0,0.0,0.0,1.0
1635634037.28125,0,0,42.373805455008885,0.0,1.0
1635634037.75,0,0,119.4138999081771,0.0,1.0
1635634038.21875,0,0,0.0,0.0,1.0
1635634038.6875,0,0,46.94194667389384,0.0,1.0
1635634039.15625,0,0,27.12913243680173,0.0,1.0
1635634039.625,0,0,0.0,0.0,1.0
1635634040.09375,0,0,109.60040388242695,0.0,1.0
1635634040.5625,0,0,59.288421891273046,0.0,1.0
1635634041.03125,0,0,0.0,0.0,1.0
1635634041.5,0,0,8.799044442905224,0.0,1.0
1635634041.96875,0,0,118.33407744143108,0.0,1.0
1635634042.4375,0,0,0.0,0.0,1.0
1635634042.90625,0,0,54.8696137779131,0.0,1.0
1635634043.375,0,0,22.675920826527925,0.0,1.0
1635634043.84375,0,0,0.0,0.0,1.0
1635634044.3125,0,0,21.64704874197952,0.0,1.0
1635634044.78125,0,0,25.04795328887511,0.0,1.0
1635634045.25,0,0,2.0465333349019836,0.0,1.0
1635634045.71875,0,0,31.54342165697846,0.0,1.0
1635634046.1875,0,0,0.0,0.0,1.0
1635634046.65625,0,0,12.950268568937666,0.0,1.0
1635634047.125,0,0,45.184208729164844,0.0,1.0
1635634047.59375,0,0,-53.77396452531769,0.0,1.0
1635634048.0625,0,0,111.7990745510918,0.0,1.0
1635634048.53125,0,0,0.0,0.0,1.0
1635634049.0,0,0,39.57169871863838,0.0,1.0
1635634049.46875,0,0,0.0,0.0,1.0
1635634049.9375,0,0,0.0,0.0,1.0
1635634050.40625,0,0,70.692359856071,0.0,1.0
1635634050.875,0,0,29.628046950554715,0.0,1.0
1635634051.34375,0,0,26.40752683764072,0.0,1.0
1635634051.8125,0,0,0.0,0.0,1.0
1635634052.28125,0,0,98.1236420845824,0.0,1.0
1635634052.75,0,0,61.58241161824785,0.0,1.0
1635634053.21875,0,0,0.0,0.0,1.0
1635634053.6875,0,0,15.982931236271686,0.0,1.0
1635634054.15625,0,0,51.81234461960445,0.0,1.0
1635634054.625,0,0,-32.861777721446394,0.0,1.0
1635634055.09375,0,0,34.25572254392292,0.0,1.0
1635634055.5625,0,0,0.0,0.0,1.0
1635634056.03125,0,0,47.678190414792944,0.0,1.0
1635634056.5,0,0,28.472903106769436,0.0,1.0
1635634056.96875,0,0,0.0,0.0,1.0
1635634057.4375,0,0,0.0,0.0,1.0
1635634057.90625,0,0,16.58910980317854,0.0,1.0
1635634058.375,0,0,0.0,0.0,1.0
1635634058.84375,0,0,58.444757949587256,0.0,1.0
1635634059.3125,0,0,14.383697028582562,0.0,1.0
1635634059.78125,0,0,0.0,0.0,1.0
1635634060.25,0,0,56.09452698149149,0.0,1.0
1635634060.71875,0,0,25.580717133936844,0.0,1.0
1635634061.1875,0,0,2.602095483523818,0.0,1.0
1635634061.65625,0,0,0.0,0.0,1.0
1635634062.125,0,0,172.07605293865848,0.0,1.0
1635634062.59375,0,0,0.0,0.0,1.0
1635634063.0625,0,0,47.00949608500233,0.0,1.0
1635634063.53125,0,0,39.278317036613,0.0,1.0
1635634064.0,0,0,0.0,0.0,1.0
1635634064.46875,0,0,53.05380412292246,0.0,1.0
1635634064.9375,0,0,37.703808362569724,0.0,1.0
1635634065.40625,0,0,14.45439992758274,0.0,1.0
1635634065.875,0,0,0.0,0.0,1.0
1635634066.34375,0,0,62.701413624469886,0.0,1.0
1635634066.8125,0,0,28.3166559479212,0.0,1.0
1635634067.28125,0,0,26.333567216004326,0.0,1.0
1635634067.75,0,0,18.656276446243705,0.0,1.0
1635634068.21875,0,0,0.0,0.0,1.0
1635634068.6875,0,0,36.49044226147045,0.0,1.0
1635634069.15625,0,0,-1.0164563053641926,0.0,1.0
1635634069.625,0,0,0.0,0.0,1.0
1635634070.09375,0,0,84.79377954123622,0.0,1.0
1635634070.5625,0,0,0.0,0.0,1.0
1635634071.03125,0,0,32.234337008411075,0.0,1.0
1635634071.5,0,0,24.939596061667174,0.0,1.0
1635634071.96875,0,0,0.0,0.0,1.0
1635634072.4375,0,0,82.00457204337552,0.0,1.0
1635634072.90625,0,0,64.919169054007,0.0,1.0
1635634073.375,0,0,50.732927907267175,0.0,1.0
1635634073.84375,0,0,41.85046022712277,0.0,1.0
1635634074.3125,0,0,0.0,0.0,1.0
1635634074.78125,0,0,7.151509801568374,0.0,1.0
1635634075.25,0,0,0.0,0.0,1.0
1635634075.71875,0,0,0.0,0.0,1.0
1635634076.1875,0,0,36.99491791856665,0.0,1.0
1635634076.65625,0,0,23.761210883111083,0.0,1.0
1635634077.125,0,0,28.17636734361339,0.0,1.0
1635634077.59375,0,0,0.0,0.0,1.0
1635634078.0625,0,0,17.16271335832188,0.0,1.0
1635634078.53125,0,0,0.0,0.0,1.0
1635634079.0,0,0,0.0,0.0,1.0
1635634079.46875,0,0,13.914467388870818,0.0,1.0
1635634079.9375,0,0,0.0,0.0,1.0
1635634080.40625,0,0,14.378638134718376,0.0,1.0
1635634080.875,0,0,0.0,0.0,1.0
1635634081.34375,0,0,0.0,0.0,1.0
1635634081.8125,0,0,9.75479381318666,0.0,1.0
1635634082.28125,0,0,0.0,0.0,1.0
1635634082.75,0,0,18.03664735514381,0.0,1.0
1635634083.21875,0,0,16.452836918881115,0.0,1.0
1635634083.6875,0,0,0.0,0.0,1.0
1635634084.15625,0,0,203.5422613724015,0.0,1.0
1635634084.625,0,0,0.0,0.0,1.0
1635634085.09375,0,0,75.7241038239018,0.0,1.0
1635634085.5625,0,0,-49.30053116649253,0.0,1.0
1635634086.03125,0,0,74.71534355631962,0.0,1.0
1635634086.5,0,0,-16.001348876807647,0.0,1.0
1635634086.96875,0,0,110.7401786599427,0.0,1.0
1635634087.4375,0,0,35.8375479581944,0.0,1.0
1635634087.90625,0,0,31.689916149653218,0.0,1.0
1635634088.375,0,0,26.151844047689405,0.0,1.0
1635634088.84375,0,0,0.0,0.0,1.0
1635634089.3125,0,0,41.33480591922302,0.0,1.0
1635634089.78125,0,0,84.48298814129771,0.0,1.0
1635634090.25,0,0,0.0,0.0,1.0
1635634090.71875,0,0,0.0,0.0,1.0
1635634091.1875,0,0,53.7697828138739,0.0,1.0
1635634091.65625,0,0,5.605042456744628,0.0,1.0
1635634092.125,0,0,0.0,0.0,1.0
1635634092.59375,0,0,25.6882498105162,0.0,1.0
1635634093.0625,0,0,32.864675177816636,0.0,1.0
1635634093.53125,0,0,21.53202624279259,0.0,1.0
1635634094.0,0,0,27.958645323828488,0.0,1.0
1635634094.46875,0,0,0.0,0.0,1.0
1635634094.9375,0,0,36.79630848723431,0.0,1.0
1635634095.40625,0,0,62.89809679310487,0.0,1.0
1635634095.875,0,0,32.72449504744772,0.0,1.0
1635634096.34375,0,0,0.0,0.0,1.0
1635634096.8125,0,0,40.0750436553288,0.0,1.0
1635634097.28125,0,0,75.27610850853706,0.0,1.0
1635634097.75,0,0,26.14734156609288,0.0,1.0
1635634098.21875,0,0,0.0,0.0,1.0
1635634098.6875,0,0,33.735993037002544,0.0,1.0
1635634099.15625,0,0,86.11650203202693,0.0,1.0
1635634099.625,0,0,0.0,0.0,1.0
1635634100.09375,0,0,15.620970751287464,0.0,1.0
1635634100.5625,0,0,34.256052413515405,0.0,1.0
1635634101.03125,0,0,31.714318808085057,0.0,1.0
1635634101.5,0,0,0.0,0.0,1.0
1635634101.96875,0,0,28.624681323450048,0.0,1.0
1635634102.4375,0,0,0.0,0.0,1.0
1635634102.90625,0,0,34.03883002840026,0.0,1.0
1635634103.375,0,0,83.77236748365766,0.0,1.0
1635634103.84375,0,0,0.0,0.0,1.0
1635634104.3125,0,0,0.0,0.0,1.0
1635634104.78125,0,0,46.28635456046708,0.0,1.0
1635634105.25,0,0,0.0,0.0,1.0
1635634105.71875,0,0,34.409855855639044,0.0,1.0
1635634106.1875,0,0,41.844277164644666,0.0,1.0
1635634106.65625,0,0,0.0,0.0,1.0
1635634107.125,0,0,89.70202552060984,0.0,1.0
1635634107.59375,0,0,16.67956846691133,0.0,1.0
1635634108.0625,0,0,29.186511012384326,0.0,1.0
1635634108.53125,0,0,0.0,0.0,1.0
1635634109.0,0,0,62.52883373321639,0.0,1.0
1635634109.46875,0,0,17.194946047721455,0.0,1.0
1635634109.9375,0,0,0.0,0.0,1.0
1635634110.40625,0,0,0.0,0.0,1.0
1635634110.875,0,0,25.404698727687634,0.0,1.0
1635634111.34375,0,0,56.625977146701544,0.0,1.0
1635634111.8125,0,0,-18.928219296684357,0.0,1.0
1635634112.28125,0,0,15.24497930708976,0.0,1.0
1635634112.75,0,0,0.0,0.0,1.0
1635634113.21875,0,0,68.24110638617219,0.0,1.0
1635634113.6875,0,0,20.69557464742879,0.0,1.0
1635634114.15625,0,0,32.19450130631056,0.0,1.0
1635634114.625,0,0,0.0,0.0,1.0
1635634115.09375,0,0,74.37384087284458,0.0,1.0
1635634115.5625,0,0,27.536464915321485,0.0,1.0
1635634116.03125,0,0,26.546607236557815,0.0,1.0
1635634116.5,0,0,0.0,0.0,1.0
1635634116.96875,0,0,61.42499842393769,0.0,1.0
1635634117.4375,0,0,29.373854480657734,0.0,1.0
1635634117.90625,0,0,13.94842104576381,0.0,1.0
1635634118.375,0,0,24.225286045014006,0.0,1.0
1635634118.84375,0,0,33.741057492210196,0.0,1.0
1635634119.3125,0,0,14.58600645689049,0.0,1.0
1635634119.78125,0,0,3.3803316172408717,0.0,1.0
1635634120.25,0,0,33.1406880837651,0.0,1.0
1635634120.71875,0,0,28.54976701332502,0.0,1.0
1635634121.1875,0,0,18.745784988360615,0.0,1.0
1635634121.65625,0,0,70.4214719211752,0.0,1.0
1635634122.125,0,0,36.48226906203429,0.0,1.0
1635634122.59375,0,0,0.0,0.0,1.0
1635634123.0625,0,0,0.0,0.0,1.0
1635634123.53125,0,0,67.97123430212733,0.0,1.0
1635634124.0,0,0,23.110827930796873,0.0,1.0
1635634124.46875,0,0,0.0,0.0,1.0
1635634124.9375,0,0,40.85928628957046,0.0,1.0
1635634125.40625,0,0,57.01945521096966,0.0,1.0
1635634125.875,0,0,0.0,0.0,1.0
1635634126.34375,0,0,19.432072025138044,0.0,1.0
1635634126.8125,0,0,54.56939459209824,0.0,1.0
1635634127.28125,0,0,0.0,0.0,1.0
1635634127.75,0,0,38.75044421675193,0.0,1.0
1635634128.21875,0,0,29.060718393382032,0.0,1.0
1635634128.6875,0,0,0.0,0.0,1.0
1635634129.15625,0,0,38.871024650123736,0.0,1.0
1635634129.625,0,0,66.01492668576293,0.0,1.0
1635634130.09375,0,0,29.727035221819825,0.0,1.0
1635634130.5625,0,0,0.0,0.0,1.0
1635634131.03125,0,0,79.7843994354999,0.0,1.0
1635634131.5,0,0,160.3827362559833,0.0,1.0
1635634131.96875,0,0,0.0,0.0,1.0
1635634132.4375,0,0,264.014398149328,0.0,1.0
1635634132.90625,0,0,-6.037430601188437,0.0,1.0
1635634133.375,0,0,-7.023769157995636,0.0,1.0
1635634133.84375,0,0,24.72925461662808,0.0,1.0
1635634134.3125,0,0,29.77345683873497,0.0,1.0
1635634134.78125,0,0,0.0,0.0,1.0
1635634135.25,0,0,0.0,0.0,1.0
1635634135.71875,0,0,29.49656880712134,0.0,1.0
1635634136.1875,0,0,0.0,0.0,1.0
1635634136.65625,0,0,0.0,0.0,1.0
1635634137.125,0,0,17.225421819112743,0.0,1.0
1635634137.59375,0,0,34.97842022699065,0.0,1.0
1635634138.0625,0,0,0.0,0.0,1.0
1635634138.53125,0,0,21.51011915529559,0.0,1.0
1635634139.0,0,0,0.0,0.0,1.0
1635634139.46875,0,0,19.31660260769238,0.0,1.0
1635634139.9375,0,0,15.941370448198489,0.0,1.0
1635634140.40625,0,0,22.60808496956279,0.0,1.0
1635634140.875,0,0,0.0,0.0,1.0
1635634141.34375,0,0,19.77911757487818,0.0,1.0
1635634141.8125,0,0,26.221245040939056,0.0,1.0
1635634142.28125,0,0,119.81653102191585,0.0,1.0
1635634142.75,0,0,41.330013664076596,0.0,1.0
1635634143.21875,0,0,42.09146985453684,0.0,1.0
1635634143.6875,0,0,46.9985732342396,0.0,1.0
1635634144.15625,0,0,0.0,0.0,1.0
1635634144.625,0,0,0.0,0.0,1.0
1635634145.09375,0,0,42.18617647792546,0.0,1.0
1635634145.5625,0,0,-2.1965918140611134,0.0,1.0
1635634146.03125,0,0,-4.29743933337205,0.0,1.0
1635634146.5,0,0,130.64344771104138,0.0,1.0
1635634146.96875,0,0,-59.69013732279542,0.0,1.0
1635634147.4375,0,0,0.0,0.0,1.0
1635634147.90625,0,0,72.98149457304471,0.0,1.0
1635634148.375,0,0,29.529549846886713,0.0,1.0
1635634148.84375,0,0,14.098686298491181,0.0,1.0
1635634149.3125,0,0,0.0,0.0,1.0
1635634149.78125,0,0,50.15169709120348,0.0,1.0
1635634150.25,0,0,89.70709078158946,0.0,1.0
1635634150.71875,0,0,18.967343219647688,0.0,1.0
1635634151.1875,0,0,0.0,0.0,1.0
1635634151.65625,0,0,0.0,0.0,1.0
1635634152.125,0,0,144.86616983278552,0.0,1.0
1635634152.59375,0,0,-53.90945082845809,0.0,1.0
1635634153.0625,0,0,61.90979733893355,0.0,1.0
1635634153.53125,0,0,0.0,0.0,1.0
1635634154.0,0,0,19.506090158180697,0.0,1.0
1635634154.46875,0,0,22.43127456932992,0.0,1.0
1635634154.9375,0,0,34.3928778367205,0.0,1.0
1635634155.40625,0,0,24.91193558089548,0.0,1.0
1635634155.875,0,0,0.0,0.0,1.0
1635634156.34375,0,0,89.8767998672864,0.0,1.0
1635634156.8125,0,0,30.45493023671669,0.0,1.0
1635634157.28125,0,0,0.0,0.0,1.0
1635634157.75,0,0,32.14843227322737,0.0,1.0
1635634158.21875,0,0,24.548030826268402,0.0,1.0
1635634158.6875,0,0,0.0,0.0,1.0
1635634159.15625,0,0,24.956403393996393,0.0,1.0
1635634159.625,0,0,40.62893446939342,0.0,1.0
1635634160.09375,0,0,39.31167969292919,0.0,1.0
1635634160.5625,0,0,17.62121698384052,0.0,1.0
1635634161.03125,0,0,39.10070777698715,0.0,1.0
1635634161.5,0,0,0.0,0.0,1.0
1635634161.96875,0,0,15.609387210903208,0.0,1.0
1635634162.4375,0,0,103.02939552998967,0.0,1.0
1635634162.90625,0,0,0.0,0.0,1.0
1635634163.375,0,0,20.8091781946462,0.0,1.0
1635634163.84375,0,0,53.8182114940355,0.0,1.0
1635634164.3125,0,0,26.859082517745644,0.0,1.0
1635634164.78125,0,0,16.219100071261607,0.0,1.0
1635634165.25,0,0,24.74868606127827,0.0,1.0
1635634165.71875,0,0,0.0,0.0,1.0
1635634166.1875,0,0,52.746194287500984,0.0,1.0
1635634166.65625,0,0,18.962200332913007,0.0,1.0
1635634167.125,0,0,0.32625746220967167,0.0,1.0
1635634167.59375,0,0,33.27482128968946,0.0,1.0
1635634168.0625,0,0,31.915790471844172,0.0,1.0
1635634168.53125,0,0,0.0,0.0,1.0
1635634169.0,0,0,25.96802173366602,0.0,1.0
1635634169.46875,0,0,0.0,0.0,1.0
1635634169.9375,0,0,113.7654052912781,0.0,1.0
1635634170.40625,0,0,6.331869277847451,0.0,1.0
1635634170.875,0,0,29.888701803939952,0.0,1.0
1635634171.34375,0,0,0.0,0.0,1.0
1635634171.8125,0,0,30.696312462910853,0.0,1.0
1635634172.28125,0,0,21.13523348813506,0.0,1.0
1635634172.75,0,0,34.88260565550954,0.0,1.0
1635634173.21875,0,0,17.822618991501493,0.0,1.0
1635634173.6875,0,0,0.0,0.0,1.0
1635634174.15625,0,0,85.1078573131354,0.0,1.0
1635634174.625,0,0,0.0,0.0,1.0
1635634175.09375,0,0,28.451664949203728,0.0,1.0
1635634175.5625,0,0,35.16373078636381,0.0,1.0
1635634176.03125,0,0,0.0,0.0,1.0
1635634176.5,0,0,71.23578320861053,0.0,1.0
1635634176.96875,0,0,22.381916053665144,0.0,1.0
1635634177.4375,0,0,31.661181486799755,0.0,1.0
1635634177.90625,0,0,0.0,0.0,1.0
1635634178.375,0,0,4.528819768731274,0.0,1.0
1635634178.84375,0,0,114.24385056892285,0.0,1.0
1635634179.3125,0,0,0.0,0.0,1.0
1635634179.78125,0,0,38.904332632168185,0.0,1.0
1635634180.25,0,0,46.63716484939596,0.0,1.0
1635634180.71875,0,0,49.56505039638191,0.0,1.0
1635634181.1875,0,0,0.0,0.0,1.0
1635634181.65625,0,0,42.27313925154568,0.0,1.0
1635634182.125,0,0,0.0,0.0,1.0
1635634182.59375,0,0,18.02776474086495,0.0,1.0
1635634183.0625,0,0,89.72959051254638,0.0,1.0
1635634183.53125,0,0,2.0655156474800487,0.0,1.0
1635634184.0,0,0,5.145649568589266,0.0,1.0
1635634184.46875,0,0,47.94044263424038,0.0,1.0
1635634184.9375,0,0,0.0,0.0,1.0
1635634185.40625,0,0,34.63501265308824,0.0,1.0
1635634185.875,0,0,0.0,0.0,1.0
1635634186.34375,0,0,45.09920752506047,0.0,1.0
1635634186.8125,0,0,0.0,0.0,1.0
1635634187.28125,0,0,40.79086246617142,0.0,1.0
1635634187.75,0,0,31.781004385826158,0.0,1.0
1635634188.21875,0,0,0.0,0.0,1.0
1635634188.6875,0,0,37.98547471474841,0.0,1.0
1635634189.15625,0,0,20.408021331467822,0.0,1.0
1635634189.625,0,0,-47.17455275133532,0.0,1.0
1635634190.09375,0,0,384.59789225805866,0.0,1.0
1635634190.5625,0,0,0.0,0.0,1.0
1635634191.03125,0,0,138.57307810886323,0.0,1.0
1635634191.5,0,0,0.0,0.0,1.0
1635634191.96875,0,0,-1.5319039447117366,0.0,1.0
1635634192.4375,0,0,19.930507275883194,0.0,1.0
1635634192.90625,0,0,29.21671568112043,0.0,1.0
1635634193.375,0,0,0.0,0.0,1.0
1635634193.84375,0,0,24.923888820520478,0.0,1.0
1635634194.3125,0,0,21.89154058854805,0.0,1.0
1635634194.78125,0,0,0.0,0.0,1.0
1635634195.25,0,0,23.45749818251433,0.0,1.0
1635634195.71875,0,0,18.41567739180872,0.0,1.0
1635634196.1875,0,0,0.0,0.0,1.0
1635634196.65625,0,0,23.74848913539853,0.0,1.0
1635634197.125,0,0,21.72797464983171,0.0,1.0
1635634197.59375,0,0,0.0,0.0,1.0
1635634198.0625,0,0,24.296298512459856,0.0,1.0
1635634198.53125,0,0,0.0,0.0,1.0
1635634199.0,0,0,0.0,0.0,1.0
1635634199.46875,0,0,17.9771815628582,0.0,1.0
1635634199.9375,0,0,0.0,0.0,1.0
1635634200.40625,0,0,0.0,0.0,1.0
1635634200.875,0,0,124.75128063550956,0.0,1.0
1635634201.34375,0,0,186.25318534819948,0.0,1.0
1635634201.8125,0,0,0.0,0.0,1.0
1635634202.28125,0,0,76.49185717742775,0.0,1.0
1635634202.75,0,0,0.0,0.0,1.0
1635634203.21875,0,0,30.36230169693867,0.0,1.0
1635634203.6875,0,0,18.8580722132432,0.0,1.0
1635634204.15625,0,0,0.0,0.0,1.0
1635634204.625,0,0,0.0,0.0,1.0
1635634205.09375,0,0,34.63366642613609,0.0,1.0
1635634205.5625,0,0,-12.841591420634785,0.0,1.0
1635634206.03125,0,0,109.59431672983486,0.0,1.0
1635634206.5,0,0,82.75854154181181,0.0,1.0
1635634206.96875,0,0,0.0,0.0,1.0
1635634207.4375,0,0,133.29932498038596,0.0,1.0
1635634207.90625,0,0,52.259563745369576,0.0,1.0
1635634208.375,0,0,0.0,0.0,1.0
1635634208.84375,0,0,31.41698496662993,0.0,1.0
1635634209.3125,0,0,27.471768970678802,0.0,1.0
1635634209.78125,0,0,0.0,0.0,1.0
1635634210.25,0,0,27.640518692953023,0.0,1.0
1635634210.71875,0,0,0.0,0.0,1.0
1635634211.1875,0,0,16.871512364359987,0.0,1.0
1635634211.65625,0,0,81.25076042188245,0.0,1.0
1635634212.125,0,0,0.0,0.0,1.0
1635634212.59375,0,0,63.260286911364645,0.0,1.0
1635634213.0625,0,0,88.54774008488772,0.0,1.0
1635634213.53125,0,0,47.58759117956125,0.0,1.0
1635634214.0,0,0,0.0,0.0,1.0
1635634214.46875,0,0,37.338939856400394,0.0,1.0
1635634214.9375,0,0,17.22852913520555,0.0,1.0
1635634215.40625,0,0,0.0,0.0,1.0
1635634215.875,0,0,32.5708932025337,0.0,1.0
1635634216.34375,0,0,0.0,0.0,1.0
1635634216.8125,0,0,44.999432717160595,0.0,1.0
1635634217.28125,0,0,0.0,0.0,1.0
1635634217.75,0,0,0.0,0.0,1.0
1635634218.21875,0,0,34.99216946025527,0.0,1.0
1635634218.6875,0,0,49.64865629997409,0.0,1.0
1635634219.15625,0,0,-18.506706803489827,0.0,1.0
1635634219.625,0,0,31.49956035218671,0.0,1.0
1635634220.09375,0,0,0.0,0.0,1.0
1635634220.5625,0,0,53.69723436507104,0.0,1.0
1635634221.03125,0,0,8.266122597127852,0.0,1.0
1635634221.5,0,0,0.0,0.0,1.0
1635634221.96875,0,0,35.02668760267226,0.0,1.0
1635634222.4375,0,0,66.21536196858517,0.0,1.0
1635634222.90625,0,0,-38.30975816612712,0.0,1.0
1635634223.375,0,0,26.817755974340503,0.0,1.0
1635634223.84375,0,0,0.0,0.0,1.0
1635634224.3125,0,0,30.9617747245931,0.0,1.0
1635634224.78125,0,0,121.3542543956138,0.0,1.0
1635634225.25,0,0,0.0,0.0,1.0
1635634225.71875,0,0,60.66843372293534,0.0,1.0
1635634226.1875,0,0,115.39145792042635,0.0,1.0
1635634226.65625,0,0,0.0,0.0,1.0
1635634227.125,0,0,53.3505323954934,0.0,1.0
1635634227.59375,0,0,0.0,0.0,1.0
1635634228.0625,0,0,0.0,0.0,1.0
1635634228.53125,0,0,102.11986633985323,0.0,1.0
1635634229.0,0,0,0.0,0.0,1.0
1635634229.46875,0,0,33.17739316065626,0.0,1.0
1635634229.9375,0,0,0.0,0.0,1.0
1635634230.40625,0,0,50.701513611374786,0.0,1.0
1635634230.875,0,0,0.0,0.0,1.0
1635634231.34375,0,0,42.83625850225484,0.0,1.0
1635634231.8125,0,0,0.0,0.0,1.0
1635634232.28125,0,0,29.673911657627176,0.0,1.0
1635634232.75,0,0,0.0,0.0,1.0
1635634233.21875,0,0,65.52607150835313,0.0,1.0
1635634233.6875,0,0,0.0,0.0,1.0
1635634234.15625,0,0,49.76108824253808,0.0,1.0
1635634234.625,0,0,94.76440414380585,0.0,1.0
1635634235.09375,0,0,52.91095342066829,0.0,1.0
1635634235.5625,0,0,0.0,0.0,1.0
1635634236.03125,0,0,52.59580400924362,0.0,1.0
1635634236.5,0,0,62.64429848346199,0.0,1.0
1635634236.96875,0,0,13.737942888676766,0.0,1.0
1635634237.4375,0,0,64.59983512303138,0.0,1.0
1635634237.90625,0,0,0.0,0.0,1.0
1635634238.375,0,0,97.1804166974936,0.0,1.0
1635634238.84375,0,0,16.448205055938175,0.0,1.0
1635634239.3125,0,0,0.0,0.0,1.0
1635634239.78125,0,0,0.0,0.0,1.0
1635634240.25,0,0,0.0,0.0,1.0
1635634240.71875,0,0,0.0,0.0,1.0
1635634241.1875,0,0,25.498349744544612,0.0,1.0
1635634241.65625,0,0,49.00404954952624,0.0,1.0
1635634242.125,0,0,0.0,0.0,1.0
1635634242.59375,0,0,109.46437067200587,0.0,1.0
1635634243.0625,0,0,0.0,0.0,1.0
1635634243.53125,0,0,0.0,0.0,1.0
1635634244.0,0,0,15.237714211879162,0.0,1.0
1635634244.46875,0,0,0.0,0.0,1.0
1635634244.9375,0,0,87.37151366216564,0.0,1.0
1635634245.40625,0,0,0.0,0.0,1.0
1635634245.875,0,0,52.49195849062243,0.0,1.0
1635634246.34375,0,0,9.099962287829522,0.0,1.0
1635634246.8125,0,0,34.47956782073127,0.0,1.0
1635634247.28125,0,0,22.66825784972776,0.0,1.0
1635634247.75,0,0,41.383765020047605,0.0,1.0
1635634248.21875,0,0,15.532025316691335,0.0,1.0
1635634248.6875,0,0,17.692629477483322,0.0,1.0
1635634249.15625,0,0,45.41889770118568,0.0,1.0
1635634249.625,0,0,58.021620989410266,0.0,1.0
1635634250.09375,0,0,0.0,0.0,1.0
1635634250.5625,0,0,0.0,0.0,1.0
1635634251.03125,0,0,144.3396417173128,0.0,1.0
1635634251.5,0,0,12.338605410057179,0.0,1.0
1635634251.96875,0,0,28.607582198556216,0.0,1.0
1635634252.4375,0,0,0.0,0.0,1.0
1635634252.90625,0,0,73.00332569025748,0.0,1.0
1635634253.375,0,0,0.0,0.0,1.0
1635634253.84375,0,0,-10.084117622484854,0.0,1.0
1635634254.3125,0,0,39.710149894026145,0.0,1.0
1635634254.78125,0,0,76.81588257802989,0.0,1.0
1635634255.25,0,0,81.29644635623724,0.0,1.0
1635634255.71875,0,0,105.00563729055395,0.0,1.0
1635634256.1875,0,0,0.0,0.0,1.0
1635634256.65625,0,0,-6.387898871184296,0.0,1.0
1635634257.125,0,0,299.7760872907,0.0,1.0
1635634257.59375,0,0,-241.90589638610862,0.0,1.0
1635634258.0625,0,0,476.7369965387213,0.0,1.0
1635634258.53125,0,0,-6.963176382107779,0.0,1.0
1635634259.0,0,0,0.0,0.0,1.0
1635634259.46875,0,0,0.0,0.0,1.0
1635634259.9375,0,0,43.94397118122263,0.0,1.0
1635634260.40625,0,0,20.092676275611552,0.0,1.0
1635634260.875,0,0,0.0,0.0,1.0
1635634261.34375,0,0,24.09371023922798,0.0,1.0
1635634261.8125,0,0,21.31248385199434,0.0,1.0
1635634262.28125,0,0,0.0,0.0,1.0
1635634262.75,0,0,23.02214117646752,0.0,1.0
1635634263.21875,0,0,23.95363957348481,0.0,1.0
1635634263.6875,0,0,0.0,0.0,1.0
1635634264.15625,0,0,20.636221571646683,0.0,1.0
1635634264.625,0,0,0.0,0.0,1.0
1635634265.09375,0,0,20.44963518223655,0.0,1.0
1635634265.5625,0,0,20.630977942603835,0.0,1.0
1635634266.03125,0,0,0.0,0.0,1.0
1635634266.5,0,0,25.431232620244835,0.0,1.0
1635634266.96875,0,0,16.253261786671903,0.0,1.0
1635634267.4375,0,0,0.0,0.0,1.0
1635634267.90625,0,0,82.1041509835804,0.0,1.0
1635634268.375,0,0,123.71765970520782,0.0,1.0
1635634268.84375,0,0,0.0,0.0,1.0
1635634269.3125,0,0,68.6665376108534,0.0,1.0
1635634269.78125,0,0,36.14434060402054,0.0,1.0
1635634270.25,0,0,0.0,0.0,1.0
1635634270.71875,0,0,-2.8121395294643063,0.0,1.0
1635634271.1875,0,0,45.30496959201158,0.0,1.0
1635634271.65625,0,0,110.06289412828924,0.0,1.0
1635634272.125,0,0,0.0,0.0,1.0
1635634272.59375,0,0,71.04864251076934,0.0,1.0
1635634273.0625,0,0,0.0,0.0,1.0
1635634273.53125,0,0,113.40812192652632,0.0,1.0
1635634274.0,0,0,0.0,0.0,1.0
1635634274.46875,0,0,103.94236129684771,0.0,1.0
1635634274.9375,0,0,0.0,0.0,1.0
1635634275.40625,0,0,38.68624340572863,0.0,1.0
1635634275.875,0,0,35.60580929951061,0.0,1.0
1635634276.34375,0,0,0.0,0.0,1.0
1635634276.8125,0,0,0.0,0.0,1.0
1635634277.28125,0,0,83.59115597448326,0.0,1.0
1635634277.75,0,0,-28.63879686227451,0.0,1.0
1635634278.21875,0,0,32.99280490999114,0.0,1.0
1635634278.6875,0,0,0.0,0.0,1.0
1635634279.15625,0,0,124.80725205482229,0.0,1.0
1635634279.625,0,0,0.0,0.0,1.0
1635634280.09375,0,0,0.0,0.0,1.0
1635634280.5625,0,0,21.195662156164442,0.0,1.0
1635634281.03125,0,0,88.31820198974212,0.0,1.0
1635634281.5,0,0,-64.00544889688446,0.0,1.0
1635634281.96875,0,0,41.61569776087189,0.0,1.0
1635634282.4375,0,0,0.0,0.0,1.0
1635634282.90625,0,0,33.548656409702154,0.0,1.0
1635634283.375,0,0,0.0,0.0,1.0
1635634283.84375,0,0,-1.7751870419051365,0.0,1.0
1635634284.3125,0,0,32.24921996284905,0.0,1.0
1635634284.78125,0,0,0.0,0.0,1.0
1635634285.25,0,0,118.46085615035635,0.0,1.0
1635634285.71875,0,0,49.659307092072275,0.0,1.0
1635634286.1875,0,0,0.0,0.0,1.0
1635634286.65625,0,0,0.0,0.0,1.0
1635634287.125,0,0,86.28329678641818,0.0,1.0
1635634287.59375,0,0,-45.188326318727505,0.0,1.0
1635634288.0625,0,0,48.00819647055211,0.0,1.0
1635634288.53125,0,0,0.0,0.0,1.0
1635634289.0,0,0,71.95176107354881,0.0,1.0
1635634289.46875,0,0,-20.015269095210815,0.0,1.0
1635634289.9375,0,0,42.50535651673405,0.0,1.0
1635634290.40625,0,0,0.0,0.0,1.0
1635634290.875,0,0,137.95039262933042,0.0,1.0
1635634291.34375,0,0,0.0,0.0,1.0
1635634291.8125,0,0,51.74667941751654,0.0,1.0
1635634292.28125,0,0,25.22111624014233,0.0,1.0
1635634292.75,0,0,0.0,0.0,1.0
1635634293.21875,0,0,92.00609455362799,0.0,1.0
1635634293.6875,0,0,52.09886021321822,0.0,1.0
1635634294.15625,0,0,0.0,0.0,1.0
1635634294.625,0,0,12.977633317670763,0.0,1.0
1635634295.09375,0,0,71.75008573823295,0.0,1.0
1635634295.5625,0,0,-34.94854904317875,0.0,1.0
1635634296.03125,0,0,43.06617132966559,0.0,1.0
1635634296.5,0,0,0.0,0.0,1.0
1635634296.96875,0,0,24.329516947782302,0.0,1.0
1635634297.4375,0,0,0.0,0.0,1.0
1635634297.90625,0,0,15.464608651025532,0.0,1.0
1635634298.375,0,0,30.700783122379256,0.0,1.0
1635634298.84375,0,0,0.0,0.0,1.0
1635634299.3125,0,0,20.53413326860707,0.0,1.0
1635634299.78125,0,0,82.62622922986648,0.0,1.0
1635634300.25,0,0,-56.81766857284775,0.0,1.0
1635634300.71875,0,0,48.7856220417047,0.0,1.0
1635634301.1875,0,0,6.818223316464277,0.0,1.0
1635634301.65625,0,0,17.043174043269353,0.0,1.0
1635634302.125,0,0,0.0,0.0,1.0
1635634302.59375,0,0,17.442014304459295,0.0,1.0
1635634303.0625,0,0,0.0,0.0,1.0
1635634303.53125,0,0,89.08055121446927,0.0,1.0
1635634304.0,0,0,49.206150793424605,0.0,1.0
1635634304.46875,0,0,0.0,0.0,1.0
1635634304.9375,0,0,30.79086335194887,0.0,1.0
1635634305.40625,0,0,43.60958014084834,0.0,1.0
1635634305.875,0,0,-6.2659317111425255,0.0,1.0
1635634306.34375,0,0,44.899354574537895,0.0,1.0
1635634306.8125,0,0,0.0,0.0,1.0
1635634307.28125,0,0,46.89650534166701,0.0,1.0
1635634307.75,0,0,27.191800198790634,0.0,1.0
1635634308.21875,0,0,42.38170326169961,0.0,1.0
1635634308.6875,0,0,0.0,0.0,1.0
1635634309.15625,0,0,87.47269671603979,0.0,1.0
1635634309.625,0,0,0.0,0.0,1.0
1635634310.09375,0,0,52.750656500881824,0.0,1.0
1635634310.5625,0,0,0.0,0.0,1.0
1635634311.03125,0,0,0.0,0.0,1.0
1635634311.5,0,0,132.85523615125436,0.0,1.0
1635634311.96875,0,0,-30.40068657419049,0.0,1.0
1635634312.4375,0,0,56.04521667314284,0.0,1.0
1635634312.90625,0,0,0.0,0.0,1.0
1635634313.375,0,0,64.28226749347517,0.0,1.0
1635634313.84375,0,0,42.05736306674481,0.0,1.0
1635634314.3125,0,0,34.68603026041691,0.0,1.0
1635634314.78125,0,0,0.0,0.0,1.0
1635634315.25,0,0,0.0,0.0,1.0
1635634315.71875,0,0,26.707015848226646,0.0,1.0
1635634316.1875,0,0,96.7565829449264,0.0,1.0
1635634316.65625,0,0,0.0,0.0,1.0
1635634317.125,0,0,54.06206983314592,0.0,1.0
1635634317.59375,0,0,54.79940322862189,0.0,1.0
1635634318.0625,0,0,-14.49249220500351,0.0,1.0
1635634318.53125,0,0,32.75457658809044,0.0,1.0
1635634319.0,0,0,0.0,0.0,1.0
1635634319.46875,0,0,41.94062473139412,0.0,1.0
1635634319.9375,0,0,27.9566827053285,0.0,1.0
1635634320.40625,0,0,0.0,0.0,1.0
1635634320.875,0,0,26.209647233987244,0.0,1.0
1635634321.34375,0,0,26.739613111950675,0.0,1.0
1635634321.8125,0,0,0.0,0.0,1.0
1635634322.28125,0,0,21.33533958004145,0.0,1.0
1635634322.75,0,0,0.0,0.0,1.0
1635634323.21875,0,0,18.366102829712986,0.0,1.0
1635634323.6875,0,0,0.0,0.0,1.0
1635634324.15625,0,0,17.094829657656586,0.0,1.0
1635634324.625,0,0,14.596912262372689,0.0,1.0
1635634325.09375,0,0,14.868814260360153,0.0,1.0
1635634325.5625,0,0,0.0,0.0,1.0
1635634326.03125,0,0,45.991700810919106,0.0,1.0
1635634326.5,0,0,18.80939475403633,0.0,1.0
1635634326.96875,0,0,18.935970741072037,0.0,1.0
1635634327.4375,0,0,20.845828023919783,0.0,1.0
1635634327.90625,0,0,39.009579894856884,0.0,1.0
1635634328.375,0,0,0.0,0.0,1.0
1635634328.84375,0,0,0.0,0.0,1.0
1635634329.3125,0,0,26.726077328928067,0.0,1.0
1635634329.78125,0,0,0.0,0.0,1.0
1635634330.25,0,0,128.4459221276608,0.0,1.0
1635634330.71875,0,0,69.69769553503049,0.0,1.0
1635634331.1875,0,0,0.0,0.0,1.0
1635634331.65625,0,0,24.084838544991882,0.0,1.0
1635634332.125,0,0,92.95838974742497,0.0,1.0
1635634332.59375,0,0,-23.943662355866906,0.0,1.0
1635634333.0625,0,0,58.68989697230157,0.0,1.0
1635634333.53125,0,0,0.0,0.0,1.0
1635634334.0,0,0,88.71943487222728,0.0,1.0
1635634334.46875,0,0,56.18674178936828,0.0,1.0
1635634334.9375,0,0,0.0,0.0,1.0
1635634335.40625,0,0,25.68372678050705,0.0,1.0
1635634335.875,0,0,0.0,0.0,1.0
1635634336.34375,0,0,145.89232680680198,0.0,1.0
1635634336.8125,0,0,-7.646219855413444,0.0,1.0
1635634337.28125,0,0,14.61507169830467,0.0,1.0
1635634337.75,0,0,88.06710275116512,0.0,1.0
1635634338.21875,0,0,0.0,0.0,1.0
1635634338.6875,0,0,19.15467283519012,0.0,1.0
1635634339.15625,0,0,23.087958064845214,0.0,1.0
1635634339.625,0,0,0.0,0.0,1.0
1635634340.09375,0,0,83.67712957225346,0.0,1.0
1635634340.5625,0,0,47.14469612415815,0.0,1.0
1635634341.03125,0,0,12.064707929187133,0.0,1.0
1635634341.5,0,0,0.0,0.0,1.0
1635634341.96875,0,0,124.22375511434015,0.0,1.0
1635634342.4375,0,0,0.0,0.0,1.0
1635634342.90625,0,0,62.09349043155781,0.0,1.0
1635634343.375,0,0,15.136715843953485,0.0,1.0
1635634343.84375,0,0,141.8089954061752,0.0,1.0
1635634344.3125,0,0,-49.209086089758124,0.0,1.0
1635634344.78125,0,0,47.844391508804485,0.0,1.0
1635634345.25,0,0,0.0,0.0,1.0
1635634345.71875,0,0,34.00939801453389,0.0,1.0
1635634346.1875,0,0,56.350070770926386,0.0,1.0
1635634346.65625,0,0,0.0,0.0,1.0
1635634347.125,0,0,38.19086689388897,0.0,1.0
1635634347.59375,0,0,0.0,0.0,1.0
1635634348.0625,0,0,88.34479918308367,0.0,1.0
1635634348.53125,0,0,37.70152649433983,0.0,1.0
1635634349.0,0,0,20.06074997887708,0.0,1.0
1635634349.46875,0,0,0.0,0.0,1.0
1635634349.9375,0,0,162.12216480557,0.0,1.0
1635634350.40625,0,0,56.077746562325366,0.0,1.0
1635634350.875,0,0,0.0,0.0,1.0
1635634351.34375,0,0,25.283207195913278,0.0,1.0
1635634351.8125,0,0,74.50262174696852,0.0,1.0
1635634352.28125,0,0,0.7350534699973159,0.0,1.0
1635634352.75,0,0,0.0,0.0,1.0
1635634353.21875,0,0,26.892168980687373,0.0,1.0
1635634353.6875,0,0,77.9188908266822,0.0,1.0
1635634354.15625,0,0,3.792664295876108,0.0,1.0
1635634354.625,0,0,47.502578998502784,0.0,1.0
1635634355.09375,0,0,37.64679485320574,0.0,1.0
1635634355.5625,0,0,0.0,0.0,1.0
1635634356.03125,0,0,18.08689399441268,0.0,1.0
1635634356.5,0,0,45.18574984785169,0.0,1.0
1635634356.96875,0,0,0.0,0.0,1.0
1635634357.4375,0,0,38.08400329455291,0.0,1.0
1635634357.90625,0,0,61.916169385116426,0.0,1.0
1635634358.375,0,0,37.36425548424821,0.0,1.0
1635634358.84375,0,0,0.0,0.0,1.0
1635634359.3125,0,0,32.46575950730116,0.0,1.0
1635634359.78125,0,0,0.0,0.0,1.0
1635634360.25,0,0,45.514698616515886,0.0,1.0
1635634360.71875,0,0,93.10694579955013,0.0,1.0
1635634361.1875,0,0,0.0,0.0,1.0
1635634361.65625,0,0,47.26184342721106,0.0,1.0
1635634362.125,0,0,64.53163019332334,0.0,1.0
1635634362.59375,0,0,-21.492679370291448,0.0,1.0
1635634363.0625,0,0,46.70515330279676,0.0,1.0
1635634363.53125,0,0,30.16055241467283,0.0,1.0
1635634364.0,0,0,68.50966457992457,0.0,1.0
1635634364.46875,0,0,-5.50049704150053,0.0,1.0
1635634364.9375,0,0,45.08085629697453,0.0,1.0
1635634365.40625,0,0,0.0,0.0,1.0
1635634365.875,0,0,50.79339746545218,0.0,1.0
1635634366.34375,0,0,54.5052430312355,0.0,1.0
1635634366.8125,0,0,0.0,0.0,1.0
1635634367.28125,0,0,27.76161814058972,0.0,1.0
1635634367.75,0,0,67.97235709950222,0.0,1.0
1635634368.21875,0,0,0.0,0.0,1.0
1635634368.6875,0,0,56.555240508794846,0.0,1.0
1635634369.15625,0,0,26.43225235684999,0.0,1.0
1635634369.625,0,0,0.0,0.0,1.0
1635634370.09375,0,0,102.40102589803017,0.0,1.0
1635634370.5625,0,0,0.0,0.0,1.0
1635634371.03125,0,0,0.0,0.0,1.0
1635634371.5,0,0,0.0,0.0,1.0
1635634371.96875,0,0,80.49743463486061,0.0,1.0
1635634372.4375,0,0,61.00250274051151,0.0,1.0
1635634372.90625,0,0,0.0,0.0,1.0
1635634373.375,0,0,31.422922665620675,0.0,1.0
1635634373.84375,0,0,0.0,0.0,1.0
1635634374.3125,0,0,0.0,0.0,1.0
1635634374.78125,0,0,80.70801301131455,0.0,1.0
1635634375.25,0,0,152.95182228023046,0.0,1.0
1635634375.71875,0,0,0.0,0.0,1.0
1635634376.1875,0,0,134.2825239703625,0.0,1.0
1635634376.65625,0,0,0.0,0.0,1.0
1635634377.125,0,0,13.732626755285498,0.0,1.0
1635634377.59375,0,0,34.453567976073266,0.0,1.0
1635634378.0625,0,0,31.228999223687637,0.0,1.0
1635634378.53125,0,0,0.0,0.0,1.0
1635634379.0,0,0,31.179226760615197,0.0,1.0
1635634379.46875,0,0,0.0,0.0,1.0
1635634379.9375,0,0,0.0,0.0,1.0
1635634380.40625,0,0,25.293895385210988,0.0,1.0
1635634380.875,0,0,0.0,0.0,1.0
1635634381.34375,0,0,0.0,0.0,1.0
1635634381.8125,0,0,32.36612331418753,0.0,1.0
1635634382.28125,0,0,0.0,0.0,1.0
1635634382.75,0,0,29.878907701228254,0.0,1.0
1635634383.21875,0,0,19.451768364841225,0.0,1.0
1635634383.6875,0,0,0.0,0.0,1.0
1635634384.15625,0,0,0.0,0.0,1.0
1635634384.625,0,0,135.0603324481813,0.0,1.0
1635634385.09375,0,0,75.21201100104449,0.0,1.0
1635634385.5625,0,0,133.2854440289915,0.0,1.0
1635634386.03125,0,0,69.67433646601928,0.0,1.0
1635634386.5,0,0,0.374120920017511,0.0,1.0
1635634386.96875,0,0,0.0,0.0,1.0
1635634387.4375,0,0,39.60345871284096,0.0,1.0
1635634387.90625,0,0,28.018875073546987,0.0,1.0
1635634388.375,0,0,1.6715094175285603,0.0,1.0
1635634388.84375,0,0,141.3069499617626,0.0,1.0
1635634389.3125,0,0,0.0,0.0,1.0
1635634389.78125,0,0,-9.384105336603072,0.0,1.0
1635634390.25,0,0,53.550481726619914,0.0,1.0
1635634390.71875,0,0,0.0,0.0,1.0
1635634391.1875,0,0,0.0,0.0,1.0
1635634391.65625,0,0,60.36572769835357,0.0,1.0
1635634392.125,0,0,48.52202666658441,0.0,1.0
1635634392.59375,0,0,0.0,0.0,1.0
1635634393.0625,0,0,130.21507366473898,0.0,1.0
1635634393.53125,0,0,0.0,0.0,1.0
1635634394.0,0,0,12.047040999004901,0.0,1.0
1635634394.46875,0,0,0.0,0.0,1.0
1635634394.9375,0,0,81.51482232117097,0.0,1.0
1635634395.40625,0,0,0.0,0.0,1.0
1635634395.875,0,0,36.38228386464011,0.0,1.0
1635634396.34375,0,0,23.34618328603609,0.0,1.0
1635634396.8125,0,0,124.87476793518454,0.0,1.0
1635634397.28125,0,0,0.0,0.0,1.0
1635634397.75,0,0,42.23645710011481,0.0,1.0
1635634398.21875,0,0,19.778525731449378,0.0,1.0
1635634398.6875,0,0,0.0,0.0,1.0
1635634399.15625,0,0,139.8122236068394,0.0,1.0
1635634399.625,0,0,0.0,0.0,1.0
1635634400.09375,0,0,0.0,0.0,1.0
1635634400.5625,0,0,24.88449512979367,0.0,1.0
1635634401.03125,0,0,132.31861202258952,0.0,1.0
1635634401.5,0,0,0.0,0.0,1.0
1635634401.96875,0,0,28.74361954111164,0.0,1.0
1635634402.4375,0,0,7.9335371333853395,0.0,1.0
1635634402.90625,0,0,143.6441428634158,0.0,1.0
1635634403.375,0,0,-4.684729701920526,0.0,1.0
1635634403.84375,0,0,24.068567781035636,0.0,1.0
1635634404.3125,0,0,0.0,0.0,1.0
1635634404.78125,0,0,230.97855429908975,0.0,1.0
1635634405.25,0,0,0.0,0.0,1.0
1635634405.71875,0,0,16.343074167744668,0.0,1.0
1635634406.1875,0,0,23.740817444815843,0.0,1.0
1635634406.65625,0,0,0.0,0.0,1.0
1635634407.125,0,0,0.0,0.0,1.0
1635634407.59375,0,0,39.478488949893425,0.0,1.0
1635634408.0625,0,0,0.0,0.0,1.0
1635634408.53125,0,0,18.409916286086823,0.0,1.0
1635634409.0,0,0,159.58919400798217,0.0,1.0
1635634409.46875,0,0,0.0,0.0,1.0
1635634409.9375,0,0,31.61006765511612,0.0,1.0
1635634410.40625,0,0,-1.4975011274632057,0.0,1.0
1635634410.875,0,0,166.1595463954926,0.0,1.0
1635634411.34375,0,0,0.0,0.0,1.0
1635634411.8125,0,0,37.12847565657548,0.0,1.0
1635634412.28125,0,0,0.0,0.0,1.0
1635634412.75,0,0,0.0,0.0,1.0
1635634413.21875,0,0,187.34980619259272,0.0,1.0
1635634413.6875,0,0,-19.46351720439285,0.0,1.0
1635634414.15625,0,0,26.043645287923493,0.0,1.0
1635634414.625,0,0,108.1672841207194,0.0,1.0
1635634415.09375,0,0,-54.263141563983986,0.0,1.0
1635634415.5625,0,0,14.998604779385683,0.0,1.0
1635634416.03125,0,0,0.0,0.0,1.0
1635634416.5,0,0,203.0071322871395,0.0,1.0
1635634416.96875,0,0,0.0,0.0,1.0
1635634417.4375,0,0,21.257603860521332,0.0,1.0
1635634417.90625,0,0,12.221861383864209,0.0,1.0
1635634418.375,0,0,0.0,0.0,1.0
1635634418.84375,0,0,177.7330774057958,0.0,1.0
1635634419.3125,0,0,33.77388981155976,0.0,1.0
1635634419.78125,0,0,0.0,0.0,1.0
1635634420.25,0,0,95.38257498767801,0.0,1.0
1635634420.71875,0,0,-5.6951638723063915,0.0,1.0
1635634421.1875,0,0,4.2755756764709725,0.0,1.0
1635634421.65625,0,0,33.000926599650604,0.0,1.0
1635634422.125,0,0,6.13020082324302,0.0,1.0
1635634422.59375,0,0,145.80414957282002,0.0,1.0
1635634423.0625,0,0,-24.704042152912212,0.0,1.0
1635634423.53125,0,0,52.40326045798879,0.0,1.0
1635634424.0,0,0,0.0,0.0,1.0
1635634424.46875,0,0,6.991363260672558,0.0,1.0
1635634424.9375,0,0,208.53643024681108,0.0,1.0
1635634425.40625,0,0,0.0,0.0,1.0
1635634425.875,0,0,-10.846573282407398,0.0,1.0
1635634426.34375,0,0,206.7442797539374,0.0,1.0
1635634426.8125,0,0,0.0,0.0,1.0
1635634427.28125,0,0,22.335518958900643,0.0,1.0
1635634427.75,0,0,0.9897464485373714,0.0,1.0
1635634428.21875,0,0,0.0,0.0,1.0
1635634428.6875,0,0,204.76047071022847,0.0,1.0
1635634429.15625,0,0,0.0,0.0,1.0
1635634429.625,0,0,29.12200844495252,0.0,1.0
1635634430.09375,0,0,5.119497356521459,0.0,1.0
1635634430.5625,0,0,188.32290116926134,0.0,1.0
1635634431.03125,0,0,-80.5923965528884,0.0,1.0
1635634431.5,0,0,35.977798699179516,0.0,1.0
1635634431.96875,0,0,35.24195758716344,0.0,1.0
1635634432.4375,0,0,0.0,0.0,1.0
1635634432.90625,0,0,-20.246650470705408,0.0,1.0
1635634433.375,0,0,55.85602875856231,0.0,1.0
1635634433.84375,0,0,52.208795436565524,0.0,1.0
1635634434.3125,0,0,1.7399234999861406,0.0,1.0
1635634434.78125,0,0,0.0,0.0,1.0
1635634435.25,0,0,21.06793286200492,0.0,1.0
1635634435.71875,0,0,20.232580124584107,0.0,1.0
1635634436.1875,0,0,14.951199238462923,0.0,1.0
1635634436.65625,0,0,14.937048225310159,0.0,1.0
1635634437.125,0,0,23.733627651244532,0.0,1.0
1635634437.59375,0,0,23.07494324201418,0.0,1.0
1635634438.0625,0,0,0.0,0.0,1.0
1635634438.53125,0,0,19.8258390406701,0.0,1.0
1635634439.0,0,0,19.508404879864255,0.0,1.0
1635634439.46875,0,0,0.0,0.0,1.0
1635634439.9375,0,0,26.066225547425535,0.0,1.0
1635634440.40625,0,0,17.6745985882124,0.0,1.0
1635634440.875,0,0,-8.566813877329382,0.0,1.0
1635634441.34375,0,0,8.852627948738318,0.0,1.0
1635634441.8125,0,0,75.45581103724608,0.0,1.0
1635634442.28125,0,0,0.0,0.0,1.0
1635634442.75,0,0,0.0,0.0,1.0
1635634443.21875,0,0,108.796079949822,0.0,1.0
1635634443.6875,0,0,0.0,0.0,1.0
1635634444.15625,0,0,56.66424388233656,0.0,1.0
1635634444.625,0,0,58.36339937737477,0.0,1.0
1635634445.09375,0,0,0.0,0.0,1.0
1635634445.5625,0,0,33.941375086838306,0.0,1.0
1635634446.03125,0,0,37.116542011944674,0.0,1.0
1635634446.5,0,0,0.0,0.0,1.0
1635634446.96875,0,0,18.345183281077123,0.0,1.0
1635634447.4375,0,0,94.72414762001073,0.0,1.0
1635634447.90625,0,0,30.83343725117284,0.0,1.0
1635634448.375,0,0,30.91052830336336,0.0,1.0
1635634448.84375,0,0,0.0,0.0,1.0
1635634449.3125,0,0,93.3701255390806,0.0,1.0
1635634449.78125,0,0,-54.269713139417604,0.0,1.0
1635634450.25,0,0,25.715752806764037,0.0,1.0
1635634450.71875,0,0,32.00447641067503,0.0,1.0
1635634451.1875,0,0,52.92330564030766,0.0,1.0
1635634451.65625,0,0,13.27468822530871,0.0,1.0
1635634452.125,0,0,20.004393016088162,0.0,1.0
1635634452.59375,0,0,0.0,0.0,1.0
1635634453.0625,0,0,115.74447200537566,0.0,1.0
1635634453.53125,0,0,17.705752822447664,0.0,1.0
1635634454.0,0,0,31.116274042672952,0.0,1.0
1635634454.46875,0,0,0.0,0.0,1.0
1635634454.9375,0,0,132.43461364208534,0.0,1.0
1635634455.40625,0,0,0.0,0.0,1.0
1635634455.875,0,0,35.04169993507578,0.0,1.0
1635634456.34375,0,0,33.684154162128195,0.0,1.0
1635634456.8125,0,0,99.08945969749034,0.0,1.0
1635634457.28125,0,0,0.0,0.0,1.0
1635634457.75,0,0,34.17852816297596,0.0,1.0
1635634458.21875,0,0,28.756854322825532,0.0,1.0
1635634458.6875,0,0,0.0,0.0,1.0
1635634459.15625,0,0,86.0832010660733,0.0,1.0
1635634459.625,0,0,40.622862628020606,0.0,1.0
1635634460.09375,0,0,0.0,0.0,1.0
1635634460.5625,0,0,28.916020818584165,0.0,1.0
1635634461.03125,0,0,87.20119192481319,0.0,1.0
1635634461.5,0,0,0.0,0.0,1.0
1635634461.96875,0,0,38.05928376555852,0.0,1.0
1635634462.4375,0,0,32.20512396688924,0.0,1.0
1635634462.90625,0,0,36.77650904266816,0.0,1.0
1635634463.375,0,0,-23.43857981536154,0.0,1.0
1635634463.84375,0,0,39.761864194954136,0.0,1.0
1635634464.3125,0,0,0.0,0.0,1.0
1635634464.78125,0,0,35.72997339641898,0.0,1.0
1635634465.25,0,0,2.6652271704845645,0.0,1.0
1635634465.71875,0,0,29.674240494440266,0.0,1.0
1635634466.1875,0,0,0.0,0.0,1.0
1635634466.65625,0,0,0.0,0.0,1.0
1635634467.125,0,0,0.0,0.0,1.0
1635634467.59375,0,0,20.869623851303945,0.0,1.0
1635634468.0625,0,0,45.37639965064173,0.0,1.0
1635634468.53125,0,0,0.0,0.0,1.0
1635634469.0,0,0,0.0,0.0,1.0
1635634469.46875,0,0,34.45695247540622,0.0,1.0
1635634469.9375,0,0,30.139360801487282,0.0,1.0
1635634470.40625,0,0,0.0,0.0,1.0
1635634470.875,0,0,31.25572899924838,0.0,1.0
1635634471.34375,0,0,-5.648472052946527,0.0,1.0
1635634471.8125,0,0,32.24946061753847,0.0,1.0
1635634472.28125,0,0,0.0,0.0,1.0
1635634472.75,0,0,23.843933811626236,0.0,1.0
1635634473.21875,0,0,69.88681402946645,0.0,1.0
1635634473.6875,0,0,-26.023638752558234,0.0,1.0
1635634474.15625,0,0,45.70580376291177,0.0,1.0
1635634474.625,0,0,0.0,0.0,1.0
1635634475.09375,0,0,0.0,0.0,1.0
1635634475.5625,0,0,37.046370127671075,0.0,1.0
1635634476.03125,0,0,29.53173344770034,0.0,1.0
1635634476.5,0,0,0.0,0.0,1.0
1635634476.96875,0,0,63.429656868014405,0.0,1.0
1635634477.4375,0,0,12.58291490421925,0.0,1.0
1635634477.90625,0,0,37.18543426145198,0.0,1.0
1635634478.375,0,0,0.0,0.0,1.0
1635634478.84375,0,0,73.61466942310466,0.0,1.0
1635634479.3125,0,0,45.70766100753852,0.0,1.0
1635634479.78125,0,0,0.0,0.0,1.0
1635634480.25,0,0,28.671251461585243,0.0,1.0
1635634480.71875,0,0,62.564714703659085,0.0,1.0
1635634481.1875,0,0,-33.62939558710288,0.0,1.0
1635634481.65625,0,0,43.79113287843023,0.0,1.0
1635634482.125,0,0,28.847967741995255,0.0,1.0
1635634482.59375,0,0,23.844991626282308,0.0,1.0
1635634483.0625,0,0,-20.8112150284401,0.0,1.0
1635634483.53125,0,0,35.460461460382255,0.0,1.0
1635634484.0,0,0,0.0,0.0,1.0
1635634484.46875,0,0,53.66996012037794,0.0,1.0
1635634484.9375,0,0,-26.06087746422331,0.0,1.0
1635634485.40625,0,0,-1.1104592751611704,0.0,1.0
1635634485.875,0,0,42.04919677502026,0.0,1.0
1635634486.34375,0,0,0.0,0.0,1.0
1635634486.8125,0,0,60.772888427977826,0.0,1.0
1635634487.28125,0,0,31.87956911222903,0.0,1.0
1635634487.75,0,0,32.304392661328556,0.0,1.0
1635634488.21875,0,0,0.0,0.0,1.0
1635634488.6875,0,0,52.63898339592521,0.0,1.0
1635634489.15625,0,0,25.335016541545247,0.0,1.0
1635634489.625,0,0,0.0,0.0,1.0
1635634490.09375,0,0,35.76482785440422,0.0,1.0
1635634490.5625,0,0,21.758348803962242,0.0,1.0
1635634491.03125,0,0,16.56478461155211,0.0,1.0
1635634491.5,0,0,0.0,0.0,1.0
1635634491.96875,0,0,32.97239238525907,0.0,1.0
1635634492.4375,0,0,27.846216106944986,0.0,1.0
1635634492.90625,0,0,0.0,0.0,1.0
1635634493.375,0,0,16.443192388307537,0.0,1.0
1635634493.84375,0,0,0.0,0.0,1.0
1635634494.3125,0,0,159.6663033436017,0.0,1.0
1635634494.78125,0,0,-93.41923616663873,0.0,1.0
1635634495.25,0,0,179.4576813407581,0.0,1.0
1635634495.71875,0,0,148.29226234236754,0.0,1.0
1635634496.1875,0,0,0.0,0.0,1.0
1635634496.65625,0,0,209.35778810777234,0.0,1.0
1635634497.125,0,0,0.0,0.0,1.0
1635634497.59375,0,0,-3.6257686538918867,0.0,1.0
1635634498.0625,0,0,56.530216401299896,0.0,1.0
1635634498.53125,0,0,7.982421528867905,0.0,1.0
1635634499.0,0,0,9.03395245036008,0.0,1.0
1635634499.46875,0,0,41.59496482098376,0.0,1.0
1635634499.9375,0,0,73.4964686219414,0.0,1.0
1635634500.40625,0,0,-10.779138655334304,0.0,1.0
1635634500.875,0,0,91.3910147609659,0.0,1.0
1635634501.34375,0,0,0.0,0.0,1.0
1635634501.8125,0,0,-8.245133301936983,0.0,1.0
1635634502.28125,0,0,26.966403107535474,0.0,1.0
1635634502.75,0,0,61.691523737736176,0.0,1.0
1635634503.21875,0,0,0.0,0.0,1.0
1635634503.6875,0,0,26.35265221386303,0.0,1.0
1635634504.15625,0,0,25.85147030945358,0.0,1.0
1635634504.625,0,0,3.248328297624556,0.0,1.0
1635634505.09375,0,0,16.453509033874326,0.0,1.0
1635634505.5625,0,0,23.708737856466936,0.0,1.0
1635634506.03125,0,0,80.49906111331774,0.0,1.0
1635634506.5,0,0,25.13894587959649,0.0,1.0
1635634506.96875,0,0,5.9697739744881515,0.0,1.0
1635634507.4375,0,0,47.409764427962834,0.0,1.0
1635634507.90625,0,0,0.0,0.0,1.0
1635634508.375,0,0,19.953240629551676,0.0,1.0
1635634508.84375,0,0,0.0,0.0,1.0
1635634509.3125,0,0,23.12469916239467,0.0,1.0
1635634509.78125,0,0,98.72045200405191,0.0,1.0
1635634510.25,0,0,0.0,0.0,1.0
1635634510.71875,0,0,88.76648160094302,0.0,1.0
1635634511.1875,0,0,17.487643963486704,0.0,1.0
1635634511.65625,0,0,0.0,0.0,1.0
1635634512.125,0,0,40.49558172608415,0.0,1.0
1635634512.59375,0,0,87.29019551235258,0.0,1.0
1635634513.0625,0,0,0.0,0.0,1.0
1635634513.53125,0,0,136.29585555638909,0.0,1.0
1635634514.0,0,0,-5.066763634137765,0.0,1.0
1635634514.46875,0,0,4.144613261961172,0.0,1.0
1635634514.9375,0,0,14.274380985987541,0.0,1.0
1635634515.40625,0,0,264.18767344709823,0.0,1.0
1635634515.875,0,0,0.0,0.0,1.0
1635634516.34375,0,0,102.20848657679231,0.0,1.0
1635634516.8125,0,0,0.0,0.0,1.0
1635634517.28125,0,0,63.857035392941945,0.0,1.0
1635634517.75,0,0,0.0,0.0,1.0
1635634518.21875,0,0,39.2566572402424,0.0,1.0
1635634518.6875,0,0,31.51355493662254,0.0,1.0
1635634519.15625,0,0,77.27598210429998,0.0,1.0
1635634519.625,0,0,0.0,0.0,1.0
1635634520.09375,0,0,124.17725527967124,0.0,1.0
1635634520.5625,0,0,17.833721424025814,0.0,1.0
1635634521.03125,0,0,0.0,0.0,1.0
1635634521.5,0,0,112.05596725462038,0.0,1.0
1635634521.96875,0,0,46.76403757927459,0.0,1.0
1635634522.4375,0,0,0.0,0.0,1.0
1635634522.90625,0,0,9.411467253497605,0.0,1.0
1635634523.375,0,0,178.31010275169587,0.0,1.0
1635634523.84375,0,0,0.0,0.0,1.0
1635634524.3125,0,0,79.42227821014158,0.0,1.0
1635634524.78125,0,0,0.0,0.0,1.0
1635634525.25,0,0,81.64460852253157,0.0,1.0
1635634525.71875,0,0,0.0,0.0,1.0
1635634526.1875,0,0,42.51668818873429,0.0,1.0
1635634526.65625,0,0,32.470866080996444,0.0,1.0
1635634527.125,0,0,121.18086632482148,0.0,1.0
1635634527.59375,0,0,0.0,0.0,1.0
1635634528.0625,0,0,59.62563781244439,0.0,1.0
1635634528.53125,0,0,16.227450211981637,0.0,1.0
1635634529.0,0,0,0.0,0.0,1.0
1635634529.46875,0,0,83.17214105920993,0.0,1.0
1635634529.9375,0,0,39.32518837095648,0.0,1.0
1635634530.40625,0,0,0.0,0.0,1.0
1635634530.875,0,0,19.371870489271373,0.0,1.0
1635634531.34375,0,0,110.04413747448154,0.0,1.0
1635634531.8125,0,0,0.0,0.0,1.0
1635634532.28125,0,0,67.3121359951022,0.0,1.0
1635634532.75,0,0,9.1398764822742,0.0,1.0
1635634533.21875,0,0,0.0,0.0,1.0
1635634533.6875,0,0,42.42996738768803,0.0,1.0
1635634534.15625,0,0,39.660625050906084,0.0,1.0
1635634534.625,0,0,0.0,0.0,1.0
1635634535.09375,0,0,13.445939247253532,0.0,1.0
1635634535.5625,0,0,61.248474645727086,0.0,1.0
1635634536.03125,0,0,0.0,0.0,1.0
1635634536.5,0,0,25.222025118893963,0.0,1.0
1635634536.96875,0,0,0.0,0.0,1.0
1635634537.4375,0,0,203.32887789240408,0.0,1.0
1635634537.90625,0,0,0.0,0.0,1.0
1635634538.375,0,0,70.27766717755415,0.0,1.0
1635634538.84375,0,0,27.653256600486966,0.0,1.0
1635634539.3125,0,0,104.29972680422742,0.0,1.0
1635634539.78125,0,0,0.0,0.0,1.0
1635634540.25,0,0,75.27485822466355,0.0,1.0
1635634540.71875,0,0,19.578144025687948,0.0,1.0
1635634541.1875,0,0,0.0,0.0,1.0
1635634541.65625,0,0,2.7935519915972904,0.0,1.0
1635634542.125,0,0,66.82809146227373,0.0,1.0
1635634542.59375,0,0,55.27192338108043,0.0,1.0
1635634543.0625,0,0,27.89963623176996,0.0,1.0
1635634543.53125,0,0,112.86497886197681,0.0,1.0
1635634544.0,0,0,0.0,0.0,1.0
1635634544.46875,0,0,26.93290298428987,0.0,1.0
1635634544.9375,0,0,0.0,0.0,1.0
1635634545.40625,0,0,90.13315657987462,0.0,1.0
1635634545.875,0,0,0.0,0.0,1.0
1635634546.34375,0,0,34.33132041097626,0.0,1.0
1635634546.8125,0,0,0.0,0.0,1.0
1635634547.28125,0,0,135.08930248626066,0.0,1.0
1635634547.75,0,0,131.352617847025,0.0,1.0
1635634548.21875,0,0,0.0,0.0,1.0
1635634548.6875,0,0,140.06355451097744,0.0,1.0
1635634549.15625,0,0,-9.516701382530636,0.0,1.0
1635634549.625,0,0,-15.875759439437958,0.0,1.0
1635634550.09375,0,0,154.02300425469429,0.0,1.0
1635634550.5625,0,0,-81.76174877839918,0.0,1.0
1635634551.03125,0,0,79.21296261295339,0.0,1.0
1635634551.5,0,0,19.64094494505469,0.0,1.0
1635634551.96875,0,0,0.0,0.0,1.0
1635634552.4375,0,0,65.32963993425282,0.0,1.0
1635634552.90625,0,0,16.422028623332984,0.0,1.0
1635634553.375,0,0,7.980271086688427,0.0,1.0
1635634553.84375,0,0,13.909027809501572,0.0,1.0
1635634554.3125,0,0,31.533595093564454,0.0,1.0
1635634554.78125,0,0,33.649857422330804,0.0,1.0
1635634555.25,0,0,61.83236883225185,0.0,1.0
1635634555.71875,0,0,0.0,0.0,1.0
1635634556.1875,0,0,0.0,0.0,1.0
1635634556.65625,0,0,42.53616309746163,0.0,1.0
1635634557.125,0,0,11.350831534642365,0.0,1.0
1635634557.59375,0,0,-31.54575809737151,0.0,1.0
1635634558.0625,0,0,0.0,0.0,1.0
1635634558.53125,0,0,314.9173059972074,0.0,1.0
1635634559.0,0,0,0.0,0.0,1.0
1635634559.46875,0,0,0.0,0.0,1.0
1635634559.9375,0,0,177.0567058656653,0.0,1.0
1635634560.40625,0,0,242.60581378471363,0.0,1.0
1635634560.875,0,0,0.0,0.0,1.0
1635634561.34375,0,0,13.408876170898347,0.0,1.0
1635634561.8125,0,0,70.87245221567416,0.0,1.0
1635634562.28125,0,0,12.452575729831333,0.0,1.0
1635634562.75,0,0,11.180855579821927,0.0,1.0
1635634563.21875,0,0,0.0,0.0,1.0
1635634563.6875,0,0,33.55481030264803,0.0,1.0
1635634564.15625,0,0,86.11955605169413,0.0,1.0
1635634564.625,0,0,-10.120985762857849,0.0,1.0
1635634565.09375,0,0,-5.400230088133587,0.0,1.0
1635634565.5625,0,0,38.33481693017719,0.0,1.0
1635634566.03125,0,0,46.65117129212517,0.0,1.0
1635634566.5,0,0,0.0,0.0,1.0
1635634566.96875,0,0,14.7096011122922,0.0,1.0
1635634567.4375,0,0,23.879398047356833,0.0,1.0
1635634567.90625,0,0,75.97737064478017,0.0,1.0
1635634568.375,0,0,-19.718457033300414,0.0,1.0
1635634568.84375,0,0,13.882542351556143,0.0,1.0
1635634569.3125,0,0,0.0,0.0,1.0
1635634569.78125,0,0,0.0,0.0,1.0
1635634570.25,0,0,36.20737098663271,0.0,1.0
1635634570.71875,0,0,25.195495958174938,0.0,1.0
1635634571.1875,0,0,0.0,0.0,1.0
1635634571.65625,0,0,17.059884997160665,0.0,1.0
1635634572.125,0,0,47.19750035731577,0.0,1.0
1635634572.59375,0,0,-28.89419281227221,0.0,1.0
1635634573.0625,0,0,28.52308612986066,0.0,1.0
1635634573.53125,0,0,25.004691300679983,0.0,1.0
1635634574.0,0,0,42.82119960315749,0.0,1.0
1635634574.46875,0,0,-2.7593134871602603,0.0,1.0
1635634574.9375,0,0,33.5746024042982,0.0,1.0
1635634575.40625,0,0,26.072358930588987,0.0,1.0
1635634575.875,0,0,29.789889714325973,0.0,1.0
1635634576.34375,0,0,-4.440523749860593,0.0,1.0
1635634576.8125,0,0,29.857678940449237,0.0,1.0
1635634577.28125,0,0,14.9047123425411,0.0,1.0
1635634577.75,0,0,13.340993210042791,0.0,1.0
1635634578.21875,0,0,11.819049422338313,0.0,1.0
1635634578.6875,0,0,23.632305268769112,0.0,1.0
1635634579.15625,0,0,0.0,0.0,1.0
1635634579.625,0,0,41.761747387448544,0.0,1.0
1635634580.09375,0,0,-10.977532580589504,0.0,1.0
1635634580.5625,0,0,-9.92327148471944,0.0,1.0
1635634581.03125,0,0,35.7867601365949,0.0,1.0
1635634581.5,0,0,28.462386369836242,0.0,1.0
1635634581.96875,0,0,13.39455373322829,0.0,1.0
1635634582.4375,0,0,20.418833928534898,0.0,1.0
1635634582.90625,0,0,14.748943753789334,0.0,1.0
1635634583.375,0,0,0.0,0.0,1.0
1635634583.84375,0,0,156.75253790176296,0.0,1.0
1635634584.3125,0,0,9.651137958653367,0.0,1.0
1635634584.78125,0,0,49.74460006453023,0.0,1.0
1635634585.25,0,0,0.0,0.0,1.0
1635634585.71875,0,0,25.380581670214617,0.0,1.0
1635634586.1875,0,0,20.751171127089368,0.0,1.0
1635634586.65625,0,0,0.0,0.0,1.0
1635634587.125,0,0,0.0,0.0,1.0
1635634587.59375,0,0,33.6197048820406,0.0,1.0
1635634588.0625,0,0,38.26352068431081,0.0,1.0
1635634588.53125,0,0,-4.935532013160664,0.0,1.0
1635634589.0,0,0,22.594261236143144,0.0,1.0
1635634589.46875,0,0,0.0,0.0,1.0
1635634589.9375,0,0,89.3941337909348,0.0,1.0
1635634590.40625,0,0,1.5814317272627456,0.0,1.0
1635634590.875,0,0,45.52935027662741,0.0,1.0
1635634591.34375,0,0,12.151922296651174,0.0,1.0
1635634591.8125,0,0,33.21756659164301,0.0,1.0
1635634592.28125,0,0,30.54143924239622,0.0,1.0
1635634592.75,0,0,0.0,0.0,1.0
1635634593.21875,0,0,32.722558958290875,0.0,1.0
1635634593.6875,0,0,0.0,0.0,1.0
1635634594.15625,0,0,53.08180762577162,0.0,1.0
1635634594.625,0,0,23.904996605481685,0.0,1.0
1635634595.09375,0,0,0.0,0.0,1.0
1635634595.5625,0,0,26.035819302515346,0.0,1.0
1635634596.03125,0,0,49.52773158869961,0.0,1.0
1635634596.5,0,0,-24.121845112643424,0.0,1.0
1635634596.96875,0,0,25.958239214381937,0.0,1.0
1635634597.4375,0,0,29.7467882393857,0.0,1.0
1635634597.90625,0,0,0.0,0.0,1.0
1635634598.375,0,0,24.428784233014266,0.0,1.0
1635634598.84375,0,0,29.169068956536304,0.0,1.0
1635634599.3125,0,0,0.0,0.0,1.0
1635634599.78125,0,0,0.0,0.0,1.0
1635634600.25,0,0,15.94083744358862,0.0,1.0
1635634600.71875,0,0,33.25536073398012,0.0,1.0
1635634601.1875,0,0,0.0,0.0,1.0
1635634601.65625,0,0,23.67906244527222,0.0,1.0
1635634602.125,0,0,0.0,0.0,1.0
1635634602.59375,0,0,46.64591041330187,0.0,1.0
1635634603.0625,0,0,33.135148486378334,0.0,1.0
1635634603.53125,0,0,31.70044372958156,0.0,1.0
1635634604.0,0,0,16.025517078336417,0.0,1.0
1635634604.46875,0,0,14.587689733173393,0.0,1.0
1635634604.9375,0,0,22.284660667374894,0.0,1.0
1635634605.40625,0,0,0.0,0.0,1.0
1635634605.875,0,0,47.60091585862609,0.0,1.0
1635634606.34375,0,0,8.463692593096967,0.0,1.0
1635634606.8125,0,0,35.59857634532496,0.0,1.0
1635634607.28125,0,0,0.0,0.0,1.0
1635634607.75,0,0,27.80487912871225,0.0,1.0
1635634608.21875,0,0,37.08397674913935,0.0,1.0
1635634608.6875,0,0,0.0,0.0,1.0
1635634609.15625,0,0,33.67199073916222,0.0,1.0
1635634609.625,0,0,28.47530040503007,0.0,1.0
1635634610.09375,0,0,0.0,0.0,1.0
1635634610.5625,0,0,26.50062475334155,0.0,1.0
1635634611.03125,0,0,23.97022202427049,0.0,1.0
1635634611.5,0,0,0.0,0.0,1.0
1635634611.96875,0,0,22.71184341064669,0.0,1.0
1635634612.4375,0,0,22.8850392996253,0.0,1.0
1635634612.90625,0,0,0.0,0.0,1.0
1635634613.375,0,0,27.917719923872117,0.0,1.0
1635634613.84375,0,0,13.07723559376919,0.0,1.0
1635634614.3125,0,0,0.0,0.0,1.0
1635634614.78125,0,0,25.117298531099213,0.0,1.0
1635634615.25,0,0,22.66113182696439,0.0,1.0
1635634615.71875,0,0,0.0,0.0,1.0
1635634616.1875,0,0,24.181280752237246,0.0,1.0
1635634616.65625,0,0,23.848943936892244,0.0,1.0
1635634617.125,0,0,0.0,0.0,1.0
1635634617.59375,0,0,15.119991082251982,0.0,1.0
1635634618.0625,0,0,0.0,0.0,1.0
1635634618.53125,0,0,25.128097484656863,0.0,1.0
1635634619.0,0,0,30.12712703433851,0.0,1.0
1635634619.46875,0,0,59.74272961739422,0.0,1.0
1635634619.9375,0,0,0.0,0.0,1.0
1635634620.40625,0,0,23.652678019651077,0.0,1.0
1635634620.875,0,0,135.30944660850486,0.0,1.0
1635634621.34375,0,0,0.0,0.0,1.0
1635634621.8125,0,0,4.994107096650927,0.0,1.0
1635634622.28125,0,0,64.58020930176535,0.0,1.0
1635634622.75,0,0,37.23802489859732,0.0,1.0
1635634623.21875,0,0,48.62233056148456,0.0,1.0
1635634623.6875,0,0,0.0,0.0,1.0
1635634624.15625,0,0,57.61940021306793,0.0,1.0
1635634624.625,0,0,0.0,0.0,1.0
1635634625.09375,0,0,63.43391853207565,0.0,1.0
1635634625.5625,0,0,13.079497201698382,0.0,1.0
1635634626.03125,0,0,31.46406847931783,0.0,1.0
1635634626.5,0,0,0.0,0.0,1.0
1635634626.96875,0,0,51.40286092380034,0.0,1.0
1635634627.4375,0,0,15.703763988466344,0.0,1.0
1635634627.90625,0,0,12.992744844085024,0.0,1.0
1635634628.375,0,0,0.0,0.0,1.0
1635634628.84375,0,0,101.25746055513376,0.0,1.0
1635634629.3125,0,0,-4.9864281147146885,0.0,1.0
1635634629.78125,0,0,24.33697985230163,0.0,1.0
1635634630.25,0,0,0.0,0.0,1.0
1635634630.71875,0,0,55.72892642714637,0.0,1.0
1635634631.1875,0,0,14.908870035695088,0.0,1.0
1635634631.65625,0,0,36.10055267376945,0.0,1.0
1635634632.125,0,0,0.0,0.0,1.0
1635634632.59375,0,0,33.65752309419843,0.0,1.0
1635634633.0625,0,0,24.9848456595043,0.0,1.0
1635634633.53125,0,0,22.00910381238067,0.0,1.0
1635634634.0,0,0,0.0,0.0,1.0
1635634634.46875,0,0,0.0,0.0,1.0
1635634634.9375,0,0,102.10589036722394,0.0,1.0
1635634635.40625,0,0,0.0,0.0,1.0
1635634635.875,0,0,61.35507035227645,0.0,1.0
1635634636.34375,0,0,0.0,0.0,1.0
1635634636.8125,0,0,83.87936788065659,0.0,1.0
1635634637.28125,0,0,30.27149089957618,0.0,1.0
1635634637.75,0,0,41.26092352911306,0.0,1.0
1635634638.21875,0,0,0.0,0.0,1.0
1635634638.6875,0,0,22.945471624340307,0.0,1.0
1635634639.15625,0,0,39.308943844565945,0.0,1.0
1635634639.625,0,0,30.261474751487018,0.0,1.0
1635634640.09375,0,0,0.0,0.0,1.0
1635634640.5625,0,0,28.720527098401735,0.0,1.0
1635634641.03125,0,0,35.044371807626,0.0,1.0
1635634641.5,0,0,57.778393498027064,0.0,1.0
1635634641.96875,0,0,8.121315355728468,0.0,1.0
1635634642.4375,0,0,0.0,0.0,1.0
1635634642.90625,0,0,122.07863727507248,0.0,1.0
1635634643.375,0,0,18.0376588770152,0.0,1.0
1635634643.84375,0,0,48.46668881391956,0.0,1.0
1635634644.3125,0,0,0.0,0.0,1.0
1635634644.78125,0,0,24.89816465536542,0.0,1.0
1635634645.25,0,0,0.0,0.0,1.0
1635634645.71875,0,0,16.66647292837297,0.0,1.0
1635634646.1875,0,0,23.082468113323568,0.0,1.0
1635634646.65625,0,0,49.6577015662547,0.0,1.0
1635634647.125,0,0,53.99812195641051,0.0,1.0
1635634647.59375,0,0,43.72699627192683,0.0,1.0
1635634648.0625,0,0,24.053199833501044,0.0,1.0
1635634648.53125,0,0,0.0,0.0,1.0
1635634649.0,0,0,52.20567031079328,0.0,1.0
1635634649.46875,0,0,0.0,0.0,1.0
1635634649.9375,0,0,44.51645067958588,0.0,1.0
1635634650.40625,0,0,0.0,0.0,1.0
1635634650.875,0,0,38.62830269264892,0.0,1.0
1635634651.34375,0,0,-0.013689863402804356,0.0,1.0
1635634651.8125,0,0,38.888549424401006,0.0,1.0
1635634652.28125,0,0,0.0,0.0,1.0
1635634652.75,0,0,34.351899450974436,0.0,1.0
1635634653.21875,0,0,0.0,0.0,1.0
1635634653.6875,0,0,18.997800989958378,0.0,1.0
1635634654.15625,0,0,34.106872231001056,0.0,1.0
1635634654.625,0,0,0.0,0.0,1.0
1635634655.09375,0,0,57.595427924788616,0.0,1.0
1635634655.5625,0,0,42.62269395141966,0.0,1.0
1635634656.03125,0,0,25.285493297975158,0.0,1.0
1635634656.5,0,0,0.0,0.0,1.0
1635634656.96875,0,0,38.98960349420694,0.0,1.0
1635634657.4375,0,0,47.89040939100884,0.0,1.0
1635634657.90625,0,0,6.774103790661207,0.0,1.0
1635634658.375,0,0,32.7767979150266,0.0,1.0
1635634658.84375,0,0,52.285166061877824,0.0,1.0
1635634659.3125,0,0,-3.640133739676772,0.0,1.0
1635634659.78125,0,0,38.52730503891594,0.0,1.0
1635634660.25,0,0,0.0,0.0,1.0
1635634660.71875,0,0,28.221645546970844,0.0,1.0
1635634661.1875,0,0,89.40182545122885,0.0,1.0
1635634661.65625,0,0,-16.95636552158933,0.0,1.0
1635634662.125,0,0,24.18799596825506,0.0,1.0
1635634662.59375,0,0,0.0,0.0,1.0
1635634663.0625,0,0,149.41312618782723,0.0,1.0
1635634663.53125,0,0,0.0,0.0,1.0
1635634664.0,0,0,35.79628068918146,0.0,1.0
1635634664.46875,0,0,0.0,0.0,1.0
1635634664.9375,0,0,77.35487594483654,0.0,1.0
1635634665.40625,0,0,0.0,0.0,1.0
1635634665.875,0,0,37.44622714351959,0.0,1.0
1635634666.34375,0,0,41.45916315674362,0.0,1.0
1635634666.8125,0,0,0.0,0.0,1.0
1635634667.28125,0,0,25.025362508260063,0.0,1.0
1635634667.75,0,0,1.0312600941714811,0.0,1.0
1635634668.21875,0,0,0.0,0.0,1.0
1635634668.6875,0,0,180.84577743535442,0.0,1.0
1635634669.15625,0,0,87.84187867366721,0.0,1.0
1635634669.625,0,0,92.02873589014196,0.0,1.0
1635634670.09375,0,0,0.0,0.0,1.0
1635634670.5625,0,0,140.51388489533738,0.0,1.0
1635634671.03125,0,0,0.0,0.0,1.0
1635634671.5,0,0,-46.77336460111437,0.0,1.0
1635634671.96875,0,0,19.92381646419235,0.0,1.0
1635634672.4375,0,0,167.89299180740588,0.0,1.0
1635634672.90625,0,0,106.34600556888974,0.0,1.0
1635634673.375,0,0,0.0,0.0,1.0
1635634673.84375,0,0,213.4143197168804,0.0,1.0
1635634674.3125,0,0,241.70388567279252,0.0,1.0
1635634674.78125,0,0,-66.63544450667658,0.0,1.0
1635634675.25,0,0,53.16201589717233,0.0,1.0
1635634675.71875,0,0,27.719431938397868,0.0,1.0
1635634676.1875,0,0,0.0,0.0,1.0
1635634676.65625,0,0,8.067807981554656,0.0,1.0
1635634677.125,0,0,26.917464184636405,0.0,1.0
1635634677.59375,0,0,0.0,0.0,1.0
1635634678.0625,0,0,14.743852909039454,0.0,1.0
1635634678.53125,0,0,19.504126567318725,0.0,1.0
1635634679.0,0,0,0.0,0.0,1.0
1635634679.46875,0,0,5.0621436471788055,0.0,1.0
1635634679.9375,0,0,0.0,0.0,2.0
1635634680.40625,0,0,33.92622830191578,0.0,2.0
1635634680.875,0,0,-2.9205066331197966,0.0,2.0
1635634681.34375,0,0,31.382365145604094,0.0,2.0
1635634681.8125,0,0,0.0,0.0,2.0
1635634682.28125,0,0,141.80379614456933,0.0,2.0
1635634682.75,0,0,0.0,0.0,2.0
1635634683.21875,0,0,135.17172771886985,0.0,2.0
1635634683.6875,0,0,73.19848907070411,0.0,2.0
1635634684.15625,0,0,-55.52724976035828,0.0,2.0
1635634684.625,0,0,0.0,0.0,2.0
1635634685.09375,0,0,250.37567993332638,0.0,2.0
1635634685.5625,0,0,0.0,0.0,2.0
1635634686.03125,0,0,234.49417785610527,0.0,2.0
1635634686.5,0,0,135.36834284342655,0.0,2.0
1635634686.96875,0,0,43.842261326884206,0.0,2.0
1635634687.4375,0,0,0.0,0.0,2.0
1635634687.90625,0,0,114.39245210439645,0.0,2.0
1635634688.375,0,0,18.936295686676605,0.0,2.0
1635634688.84375,0,0,13.345040455911333,0.0,2.0
1635634689.3125,0,0,0.0,0.0,2.0
1635634689.78125,0,0,48.77653579470612,0.0,2.0
1635634690.25,0,0,28.58123783758069,0.0,2.0
1635634690.71875,0,0,0.0,0.0,2.0
1635634691.1875,0,0,28.33977211563636,0.0,2.0
1635634691.65625,0,0,33.656677504971896,0.0,2.0
1635634692.125,0,0,0.0,0.0,2.0
1635634692.59375,0,0,21.107899608344425,0.0,2.0
1635634693.0625,0,0,0.0,0.0,2.0
1635634693.53125,0,0,126.84046348529898,0.0,2.0
1635634694.0,0,0,111.41035013445283,0.0,2.0
1635634694.46875,0,0,29.486278894406073,0.0,2.0
1635634694.9375,0,0,136.21253093898414,0.0,2.0
1635634695.40625,0,0,43.97138355836838,0.0,2.0
1635634695.875,0,0,0.0,0.0,2.0
1635634696.34375,0,0,0.0,0.0,2.0
1635634696.8125,0,0,31.03186467096051,0.0,2.0
1635634697.28125,0,0,0.0,0.0,2.0
1635634697.75,0,0,0.0,0.0,2.0
1635634698.21875,0,0,22.178580414942587,0.0,2.0
1635634698.6875,0,0,30.447279901964965,0.0,2.0
1635634699.15625,0,0,0.0,0.0,2.0
1635634699.625,0,0,27.050153738451797,0.0,2.0
1635634700.09375,0,0,0.0,0.0,2.0
1635634700.5625,0,0,26.795314965528494,0.0,2.0
1635634701.03125,0,0,28.669078765239135,0.0,2.0
1635634701.5,0,0,0.0,0.0,2.0
1635634701.96875,0,0,22.35924713024253,0.0,2.0
1635634702.4375,0,0,0.0,0.0,2.0
1635634702.90625,0,0,28.424200361488957,0.0,2.0
1635634703.375,0,0,14.81957306620407,0.0,2.0
1635634703.84375,0,0,0.0,0.0,2.0
1635634704.3125,0,0,3.279159139437978,0.0,2.0
1635634704.78125,0,0,85.9875311003915,0.0,2.0
1635634705.25,0,0,-39.12108915121155,0.0,2.0
1635634705.71875,0,0,42.289942983745355,0.0,2.0
1635634706.1875,0,0,0.0,0.0,2.0
1635634706.65625,0,0,14.384662273376968,0.0,2.0
1635634707.125,0,0,15.470020410824178,0.0,2.0
1635634707.59375,0,0,22.1098800996575,0.0,2.0
1635634708.0625,0,0,0.0,0.0,2.0
1635634708.53125,0,0,21.69364317651871,0.0,2.0
1635634709.0,0,0,0.0,0.0,2.0
1635634709.46875,0,0,22.662176064211973,0.0,2.0
1635634709.9375,0,0,18.799531907673188,0.0,2.0
1635634710.40625,0,0,0.0,0.0,2.0
1635634710.875,0,0,17.11052245622639,0.0,2.0
1635634711.34375,0,0,0.0,0.0,2.0
1635634711.8125,0,0,0.0,0.0,2.0
1635634712.28125,0,0,19.0697473863142,0.0,2.0
1635634712.75,0,0,0.0,0.0,2.0
1635634713.21875,0,0,18.635983520874348,0.0,2.0
1635634713.6875,0,0,16.115146269240476,0.0,2.0
1635634714.15625,0,0,0.0,0.0,2.0
1635634714.625,0,0,16.77359933844958,0.0,2.0
1635634715.09375,0,0,19.28706114786296,0.0,2.0
1635634715.5625,0,0,15.120870113686326,0.0,2.0
1635634716.03125,0,0,0.0,0.0,2.0
1635634716.5,0,0,18.595321754686083,0.0,2.0
1635634716.96875,0,0,17.448565912901707,0.0,2.0
1635634717.4375,0,0,0.0,0.0,2.0
1635634717.90625,0,0,14.03997200528077,0.0,2.0
1635634718.375,0,0,0.0,0.0,2.0
1635634718.84375,0,0,25.657558914948275,0.0,2.0
1635634719.3125,0,0,45.87495980424767,0.0,2.0
1635634719.78125,0,0,31.699606199206524,0.0,2.0
1635634720.25,0,0,-7.380210480558722,0.0,2.0
1635634720.71875,0,0,8.993587529035452,0.0,2.0
1635634721.1875,0,0,19.003061233550927,0.0,2.0
1635634721.65625,0,0,-2.7203938951324145,0.0,2.0
1635634722.125,0,0,12.533823223909792,0.0,2.0
1635634722.59375,0,0,0.0,0.0,2.0
1635634723.0625,0,0,15.910417681822139,0.0,2.0
1635634723.53125,0,0,10.153814410962333,0.0,2.0
1635634724.0,0,0,0.0,0.0,2.0
1635634724.46875,0,0,0.0,0.0,2.0
1635634724.9375,0,0,10.41989486188334,0.0,2.0
1635634725.40625,0,0,9.820334589836532,0.0,2.0
1635634725.875,0,0,0.0,0.0,2.0
1635634726.34375,0,0,12.300880514719063,0.0,2.0
1635634726.8125,0,0,11.64110577626138,0.0,2.0
1635634727.28125,0,0,0.0,0.0,2.0
1635634727.75,0,0,6.907472339432668,0.0,2.0
1635634728.21875,0,0,18.50919264519642,0.0,2.0
1635634728.6875,0,0,0.0,0.0,2.0
1635634729.15625,0,0,8.411758070970587,0.0,2.0
1635634729.625,0,0,0.0,0.0,2.0
1635634730.09375,0,0,0.0,0.0,2.0
1635634730.5625,0,0,21.754820469440556,0.0,2.0
1635634731.03125,0,0,0.0,0.0,2.0
1635634731.5,0,0,0.0,0.0,2.0
1635634731.96875,0,0,22.208658269030156,0.0,2.0
1635634732.4375,0,0,7.772728401474381,0.0,2.0
1635634732.90625,0,0,15.883164635071996,0.0,2.0
1635634733.375,0,0,0.0,0.0,2.0
1635634733.84375,0,0,12.549470274741577,0.0,2.0
1635634734.3125,0,0,0.0,0.0,2.0
1635634734.78125,0,0,0.0,0.0,2.0
1635634735.25,0,0,12.096662818716672,0.0,2.0
1635634735.71875,0,0,0.0,0.0,2.0
1635634736.1875,0,0,8.907594080618836,0.0,2.0
1635634736.65625,0,0,9.311654715405593,0.0,2.0
1635634737.125,0,0,8.762921351916733,0.0,2.0
1635634737.59375,0,0,0.0,0.0,2.0
1635634738.0625,0,0,13.816426893795699,0.0,2.0
1635634738.53125,0,0,0.0,0.0,2.0
1635634739.0,0,0,0.0,0.0,2.0
1635634739.46875,0,0,10.127031444823404,0.0,2.0
1635634739.9375,0,0,0.0,0.0,2.0
1635634740.40625,0,0,38.02471811574919,0.0,2.0
1635634740.875,0,0,6.464916026027574,0.0,2.0
1635634741.34375,0,0,80.76974243490832,0.0,2.0
1635634741.8125,0,0,0.0,0.0,2.0
1635634742.28125,0,0,18.847859377874396,0.0,2.0
1635634742.75,0,0,38.35474530840087,0.0,2.0
1635634743.21875,0,0,0.0,0.0,2.0
1635634743.6875,0,0,0.0,0.0,2.0
1635634744.15625,0,0,68.39623949317134,0.0,2.0
1635634744.625,0,0,9.89549726686395,0.0,2.0
1635634745.09375,0,0,9.566208805102931,0.0,2.0
1635634745.5625,0,0,20.217428450299547,0.0,2.0
1635634746.03125,0,0,9.975103362037977,0.0,2.0
1635634746.5,0,0,11.147867746883179,0.0,2.0
1635634746.96875,0,0,0.0,0.0,2.0
1635634747.4375,0,0,11.860711734204818,0.0,2.0
1635634747.90625,0,0,8.344061680425632,0.0,2.0
1635634748.375,0,0,0.0,0.0,2.0
1635634748.84375,0,0,14.341970647846551,0.0,2.0
1635634749.3125,0,0,0.0,0.0,2.0
1635634749.78125,0,0,11.303114654406679,0.0,2.0
1635634750.25,0,0,0.0,0.0,2.0
1635634750.71875,0,0,0.0,0.0,2.0
1635634751.1875,0,0,8.688886265777935,0.0,2.0
1635634751.65625,0,0,13.87330658761717,0.0,2.0
1635634752.125,0,0,0.0,0.0,2.0
1635634752.59375,0,0,20.485891418128993,0.0,2.0
1635634753.0625,0,0,0.0,0.0,2.0
1635634753.53125,0,0,17.49169440669667,0.0,2.0
1635634754.0,0,0,19.58100282303986,0.0,2.0
1635634754.46875,0,0,0.0,0.0,2.0
1635634754.9375,0,0,14.070060772100703,0.0,2.0
1635634755.40625,0,0,0.0,0.0,2.0
1635634755.875,0,0,0.0,0.0,2.0
1635634756.34375,0,0,19.93038185912571,0.0,2.0
1635634756.8125,0,0,0.0,0.0,2.0
1635634757.28125,0,0,21.563698980901982,0.0,2.0
1635634757.75,0,0,0.0,0.0,2.0
1635634758.21875,0,0,0.0,0.0,2.0
1635634758.6875,0,0,18.860315450235092,0.0,2.0
1635634759.15625,0,0,0.0,0.0,2.0
1635634759.625,0,0,19.421982533343147,0.0,2.0
1635634760.09375,0,0,17.421736214972515,0.0,2.0
1635634760.5625,0,0,0.0,0.0,2.0
1635634761.03125,0,0,14.364739867562431,0.0,2.0
1635634761.5,0,0,16.176029938959516,0.0,2.0
1635634761.96875,0,0,0.0,0.0,2.0
1635634762.4375,0,0,20.425102622301676,0.0,2.0
1635634762.90625,0,0,0.0,0.0,2.0
1635634763.375,0,0,17.951185142956767,0.0,2.0
1635634763.84375,0,0,0.0,0.0,2.0
1635634764.3125,0,0,22.802375746815763,0.0,2.0
1635634764.78125,0,0,0.0,0.0,2.0
1635634765.25,0,0,0.0,0.0,2.0
1635634765.71875,0,0,15.16149513818427,0.0,2.0
1635634766.1875,0,0,0.0,0.0,2.0
1635634766.65625,0,0,18.410376712566503,0.0,2.0
1635634767.125,0,0,0.0,0.0,2.0
1635634767.59375,0,0,22.349991092916916,0.0,2.0
1635634768.0625,0,0,11.134134432121668,0.0,2.0
1635634768.53125,0,0,0.0,0.0,2.0
1635634769.0,0,0,20.246334192417404,0.0,2.0
1635634769.46875,0,0,0.0,0.0,2.0
1635634769.9375,0,0,18.13146034090885,0.0,2.0
1635634770.40625,0,0,0.0,0.0,2.0
1635634770.875,0,0,15.77892983645888,0.0,2.0
1635634771.34375,0,0,16.561989304734784,0.0,2.0
1635634771.8125,0,0,0.0,0.0,2.0
1635634772.28125,0,0,20.958358754050533,0.0,2.0
1635634772.75,0,0,0.0,0.0,2.0
1635634773.21875,0,0,18.4355883513178,0.0,2.0
1635634773.6875,0,0,0.0,0.0,2.0
1635634774.15625,0,0,0.0,0.0,2.0
1635634774.625,0,0,17.850541283876066,0.0,2.0
1635634775.09375,0,0,16.196489404594693,0.0,2.0
1635634775.5625,0,0,0.0,0.0,2.0
1635634776.03125,0,0,20.502375138522197,0.0,2.0
1635634776.5,0,0,20.73853270077076,0.0,2.0
1635634776.96875,0,0,15.682368067554243,0.0,2.0
1635634777.4375,0,0,0.0,0.0,2.0
1635634777.90625,0,0,15.948809264403971,0.0,2.0
1635634778.375,0,0,8.303923496759944,0.0,2.0
1635634778.84375,0,0,0.0,0.0,2.0
1635634779.3125,0,0,22.65005337677781,0.0,2.0
1635634779.78125,0,0,0.0,0.0,2.0
1635634780.25,0,0,9.857507923480057,0.0,2.0
1635634780.71875,0,0,0.0,0.0,2.0
1635634781.1875,0,0,0.0,0.0,2.0
1635634781.65625,0,0,0.0,0.0,2.0
1635634782.125,0,0,15.266544322498342,0.0,2.0
1635634782.59375,0,0,0.0,0.0,2.0
1635634783.0625,0,0,0.0,0.0,2.0
1635634783.53125,0,0,10.267303365942011,0.0,2.0
1635634784.0,0,0,0.0,0.0,2.0
1635634784.46875,0,0,10.410102308143061,0.0,2.0
1635634784.9375,0,0,20.058945645607984,0.0,2.0
1635634785.40625,0,0,0.0,0.0,2.0
1635634785.875,0,0,15.378043264342438,0.0,2.0
1635634786.34375,0,0,0.0,0.0,2.0
1635634786.8125,0,0,17.250823662770213,0.0,2.0
1635634787.28125,0,0,16.719316948463295,0.0,2.0
1635634787.75,0,0,0.0,0.0,2.0
1635634788.21875,0,0,12.343642631636348,0.0,2.0
1635634788.6875,0,0,0.0,0.0,2.0
1635634789.15625,0,0,19.346228584820008,0.0,2.0
1635634789.625,0,0,0.0,0.0,2.0
1635634790.09375,0,0,18.098878361408023,0.0,2.0
1635634790.5625,0,0,17.38056244350319,0.0,2.0
1635634791.03125,0,0,0.0,0.0,2.0
1635634791.5,0,0,14.091269511144457,0.0,2.0
1635634791.96875,0,0,0.0,0.0,2.0
1635634792.4375,0,0,17.567071050422918,0.0,2.0
1635634792.90625,0,0,19.587016149311374,0.0,2.0
1635634793.375,0,0,0.0,0.0,2.0
1635634793.84375,0,0,18.662652905165846,0.0,2.0
1635634794.3125,0,0,0.0,0.0,2.0
1635634794.78125,0,0,21.065651970126876,0.0,2.0
1635634795.25,0,0,8.753912509584582,0.0,2.0
1635634795.71875,0,0,0.0,0.0,2.0
1635634796.1875,0,0,22.670024890278103,0.0,2.0
1635634796.65625,0,0,0.0,0.0,2.0
1635634797.125,0,0,0.0,0.0,2.0
1635634797.59375,0,0,12.27048306165441,0.0,2.0
1635634798.0625,0,0,0.0,0.0,2.0
1635634798.53125,0,0,16.890807119863165,0.0,2.0
1635634799.0,0,0,15.995301566160212,0.0,2.0
1635634799.46875,0,0,0.0,0.0,2.0
1635634799.9375,0,0,0.0,0.0,2.0
1635634800.40625,0,0,0.0,0.0,2.0
1635634800.875,0,0,9.743503864133407,0.0,2.0
1635634801.34375,0,0,0.0,0.0,2.0
1635634801.8125,0,0,15.031925048109839,0.0,2.0
1635634802.28125,0,0,18.19244465651883,0.0,2.0
1635634802.75,0,0,0.0,0.0,2.0
1635634803.21875,0,0,25.440141143241785,0.0,2.0
1635634803.6875,0,0,18.604633740279905,0.0,2.0
1635634804.15625,0,0,0.0,0.0,2.0
1635634804.625,0,0,0.0,0.0,2.0
1635634805.09375,0,0,164.51659065473083,0.0,2.0
1635634805.5625,0,0,-34.00737664481317,0.0,2.0
1635634806.03125,0,0,19.42986866779029,0.0,2.0
1635634806.5,0,0,-19.84897571823854,0.0,2.0
1635634806.96875,0,0,299.82710039824457,0.0,2.0
1635634807.4375,0,0,198.1489916314818,0.0,2.0
1635634807.90625,0,0,0.0,0.0,2.0
1635634808.375,0,0,393.16678692621747,0.0,2.0
1635634808.84375,0,0,47.06020583861499,0.0,2.0
1635634809.3125,0,0,28.660208025123765,0.0,2.0
1635634809.78125,0,0,38.262059837847474,0.0,2.0
1635634810.25,0,0,28.559713797546408,0.0,2.0
1635634810.71875,0,0,21.768203384965204,0.0,2.0
1635634811.1875,0,0,0.0,0.0,2.0
1635634811.65625,0,0,22.186509820241536,0.0,2.0
1635634812.125,0,0,15.20338477815819,0.0,2.0
1635634812.59375,0,0,17.293582173083536,0.0,2.0
1635634813.0625,0,0,12.095041255672115,0.0,2.0
1635634813.53125,0,0,0.0,0.0,2.0
1635634814.0,0,0,12.457638374121434,0.0,2.0
1635634814.46875,0,0,14.359529567052164,0.0,2.0
1635634814.9375,0,0,0.0,0.0,2.0
1635634815.40625,0,0,12.040977903800787,0.0,2.0
1635634815.875,0,0,10.986627249982522,0.0,2.0
1635634816.34375,0,0,0.0,0.0,2.0
1635634816.8125,0,0,0.0,0.0,2.0
1635634817.28125,0,0,17.074430600625973,0.0,2.0
1635634817.75,0,0,0.0,0.0,2.0
1635634818.21875,0,0,8.015931676780962,0.0,2.0
1635634818.6875,0,0,11.595983418339985,0.0,2.0
1635634819.15625,0,0,0.0,0.0,2.0
1635634819.625,0,0,0.0,0.0,2.0
1635634820.09375,0,0,24.432497958879956,0.0,2.0
1635634820.5625,0,0,0.0,0.0,2.0
1635634821.03125,0,0,333.41738687059296,0.0,2.0
1635634821.5,0,0,0.0,0.0,2.0
1635634821.96875,0,0,73.48868818089011,0.0,2.0
1635634822.4375,0,0,109.80962580170481,0.0,2.0
1635634822.90625,0,0,10.3415779971055,0.0,2.0
1635634823.375,0,0,35.40124685949844,0.0,2.0
1635634823.84375,0,0,0.0,0.0,2.0
1635634824.3125,0,0,20.283077798370282,0.0,2.0
1635634824.78125,0,0,20.548631516227065,0.0,2.0
1635634825.25,0,0,0.0,0.0,2.0
1635634825.71875,0,0,23.528510614014927,0.0,2.0
1635634826.1875,0,0,14.379672294084543,0.0,2.0
1635634826.65625,0,0,0.0,0.0,2.0
1635634827.125,0,0,14.538878405675144,0.0,2.0
1635634827.59375,0,0,0.0,0.0,2.0
1635634828.0625,0,0,14.459527408952923,0.0,2.0
1635634828.53125,0,0,6.223889932995772,0.0,2.0
1635634829.0,0,0,6.650062520678053,0.0,2.0
1635634829.46875,0,0,10.79168518804829,0.0,2.0
1635634829.9375,0,0,0.0,0.0,2.0
1635634830.40625,0,0,12.109557082256485,0.0,2.0
1635634830.875,0,0,0.0,0.0,2.0
1635634831.34375,0,0,13.67088091168916,0.0,2.0
1635634831.8125,0,0,0.0,0.0,2.0
1635634832.28125,0,0,16.499569302345357,0.0,2.0
1635634832.75,0,0,8.502758180953583,0.0,2.0
1635634833.21875,0,0,0.0,0.0,2.0
1635634833.6875,0,0,9.466619586302205,0.0,2.0
1635634834.15625,0,0,7.872067076053944,0.0,2.0
1635634834.625,0,0,0.0,0.0,2.0
1635634835.09375,0,0,19.12389798170328,0.0,2.0
1635634835.5625,0,0,0.0,0.0,2.0
1635634836.03125,0,0,14.081131398956447,0.0,2.0
1635634836.5,0,0,37.23686613822826,0.0,2.0
1635634836.96875,0,0,0.0,0.0,2.0
1635634837.4375,0,0,0.0,0.0,2.0
1635634837.90625,0,0,15.756266753291293,0.0,2.0
1635634838.375,0,0,19.799768002246843,0.0,2.0
1635634838.84375,0,0,0.0,0.0,2.0
1635634839.3125,0,0,0.0,0.0,2.0
1635634839.78125,0,0,0.0,0.0,2.0
1635634840.25,0,0,14.897719486975207,0.0,2.0
1635634840.71875,0,0,13.035638218603545,0.0,2.0
1635634841.1875,0,0,0.0,0.0,2.0
1635634841.65625,0,0,10.918313981598171,0.0,2.0
1635634842.125,0,0,13.96983053076142,0.0,2.0
1635634842.59375,0,0,0.0,0.0,2.0
1635634843.0625,0,0,13.210739878963217,0.0,2.0
1635634843.53125,0,0,0.0,0.0,2.0
1635634844.0,0,0,17.064163156840134,0.0,2.0
1635634844.46875,0,0,15.678907139099845,0.0,2.0
1635634844.9375,0,0,0.0,0.0,2.0
1635634845.40625,0,0,14.214682086977568,0.0,2.0
1635634845.875,0,0,15.865365888912224,0.0,2.0
1635634846.34375,0,0,0.0,0.0,2.0
1635634846.8125,0,0,8.619394289527948,0.0,2.0
1635634847.28125,0,0,10.959430027428866,0.0,2.0
1635634847.75,0,0,0.0,0.0,2.0
1635634848.21875,0,0,16.73921599017474,0.0,2.0
1635634848.6875,0,0,19.0147474715289,0.0,2.0
1635634849.15625,0,0,0.0,0.0,2.0
1635634849.625,0,0,8.292322375493091,0.0,2.0
1635634850.09375,0,0,0.0,0.0,2.0
1635634850.5625,0,0,17.73804550885738,0.0,2.0
1635634851.03125,0,0,31.18236260742192,0.0,2.0
1635634851.5,0,0,-36.029636748245096,0.0,2.0
1635634851.96875,0,0,33.212854762372515,0.0,2.0
1635634852.4375,0,0,126.1586115792197,0.0,2.0
1635634852.90625,0,0,149.96125849155803,0.0,2.0
1635634853.375,0,0,1.121510438373172,0.0,2.0
1635634853.84375,0,0,0.0,0.0,2.0
1635634854.3125,0,0,800.4453498640393,0.0,2.0
1635634854.78125,0,0,-97.3376641326549,0.0,2.0
1635634855.25,0,0,26.91651859523839,0.0,2.0
1635634855.71875,0,0,0.0,0.0,2.0
1635634856.1875,0,0,70.92673245976195,0.0,2.0
1635634856.65625,0,0,7.652919290354734,0.0,2.0
1635634857.125,0,0,18.337468927671136,0.0,2.0
1635634857.59375,0,0,0.0,0.0,2.0
1635634858.0625,0,0,21.05322034594281,0.0,2.0
1635634858.53125,0,0,17.103862919785048,0.0,2.0
1635634859.0,0,0,0.0,0.0,2.0
1635634859.46875,0,0,21.16661140100949,0.0,2.0
1635634859.9375,0,0,17.810101598655695,0.0,2.0
1635634860.40625,0,0,16.303187109154056,0.0,2.0
1635634860.875,0,0,0.0,0.0,2.0
1635634861.34375,0,0,16.93438037562054,0.0,2.0
1635634861.8125,0,0,19.252690739955632,0.0,2.0
1635634862.28125,0,0,0.0,0.0,2.0
1635634862.75,0,0,16.212098318795054,0.0,2.0
1635634863.21875,0,0,0.0,0.0,2.0
1635634863.6875,0,0,8.76028165839648,0.0,2.0
1635634864.15625,0,0,14.747399495962142,0.0,2.0
1635634864.625,0,0,0.0,0.0,2.0
1635634865.09375,0,0,14.938447921024158,0.0,2.0
1635634865.5625,0,0,11.50491109499486,0.0,2.0
1635634866.03125,0,0,0.0,0.0,2.0
1635634866.5,0,0,16.82461419136296,0.0,2.0
1635634866.96875,0,0,0.8601986060444392,0.0,2.0
1635634867.4375,0,0,0.0,0.0,2.0
1635634867.90625,0,0,90.40678047568795,0.0,2.0
1635634868.375,0,0,7.686955476510102,0.0,2.0
1635634868.84375,0,0,0.0,0.0,2.0
1635634869.3125,0,0,-16.291070914889197,0.0,2.0
1635634869.78125,0,0,152.07304544209882,0.0,2.0
1635634870.25,0,0,-1.5984403846899782,0.0,2.0
1635634870.71875,0,0,-13.386134313808038,0.0,2.0
1635634871.1875,0,0,118.59537804799717,0.0,2.0
1635634871.65625,0,0,19.21984224968165,0.0,2.0
1635634872.125,0,0,0.0,0.0,2.0
1635634872.59375,0,0,4.20880657949825,0.0,2.0
1635634873.0625,0,0,27.603724040686636,0.0,2.0
1635634873.53125,0,0,19.286376265061005,0.0,2.0
1635634874.0,0,0,0.0,0.0,3.0
1635634874.46875,0,0,12.88528214648704,0.0,3.0
1635634874.9375,0,0,0.0,0.0,3.0
1635634875.40625,0,0,13.532582284412923,0.0,3.0
1635634875.875,0,0,50.874155117332116,0.0,3.0
1635634876.34375,0,0,86.85760483682296,0.0,3.0
1635634876.8125,0,0,-41.58650476223798,0.0,3.0
1635634877.28125,0,0,220.23344728249114,0.0,3.0
1635634877.75,0,0,-20.7707736705427,0.0,3.0
1635634878.21875,0,0,130.54794593161122,0.0,3.0
1635634878.6875,0,0,0.0,0.0,3.0
1635634879.15625,0,0,320.89394127167816,0.0,3.0
1635634879.625,0,0,53.94035990000616,0.0,3.0
1635634880.09375,0,0,0.0,0.0,3.0
1635634880.5625,0,0,76.56932774969029,0.0,3.0
1635634881.03125,0,0,28.669133771740665,0.0,3.0
1635634881.5,0,0,156.5902651596258,0.0,3.0
1635634881.96875,0,0,0.0,0.0,3.0
1635634882.4375,0,0,116.87584403756225,0.0,3.0
1635634882.90625,0,0,5.767004168655119,0.0,3.0
1635634883.375,0,0,-2.640310392134151,0.0,3.0
1635634883.84375,0,0,0.0,0.0,3.0
1635634884.3125,0,0,179.23241245701274,0.0,3.0
1635634884.78125,0,0,0.0,0.0,3.0
1635634885.25,0,0,45.46211439770507,0.0,3.0
1635634885.71875,0,0,30.40467055896783,0.0,3.0
1635634886.1875,0,0,0.0,0.0,3.0
1635634886.65625,0,0,141.11203124731594,0.0,3.0
1635634887.125,0,0,0.0,0.0,3.0
1635634887.59375,0,0,245.888743929443,0.0,3.0
1635634888.0625,0,0,43.536983811582196,0.0,3.0
1635634888.53125,0,0,83.30418660903031,0.0,3.0
1635634889.0,0,0,55.69457895988746,0.0,3.0
1635634889.46875,0,0,101.23887064256876,0.0,3.0
1635634889.9375,0,0,18.438801399182008,0.0,3.0
1635634890.40625,0,0,11.13694800301182,0.0,3.0
1635634890.875,0,0,42.31055487831723,0.0,3.0
1635634891.34375,0,0,130.24283384933818,0.0,3.0
1635634891.8125,0,0,0.0,0.0,3.0
1635634892.28125,0,0,17.437887267027357,0.0,3.0
1635634892.75,0,0,0.0,0.0,3.0
1635634893.21875,0,0,154.90085482490147,0.0,3.0
1635634893.6875,0,0,0.0,0.0,3.0
1635634894.15625,0,0,44.96069726902988,0.0,3.0
1635634894.625,0,0,0.0,0.0,3.0
1635634895.09375,0,0,166.09820641022625,0.0,3.0
1635634895.5625,0,0,0.0,0.0,3.0
1635634896.03125,0,0,80.91217091661369,0.0,3.0
1635634896.5,0,0,22.934083581306567,0.0,3.0
1635634896.96875,0,0,90.18554372607994,0.0,3.0
1635634897.4375,0,0,5.673734564118048,0.0,3.0
1635634897.90625,0,0,45.19744196943713,0.0,3.0
1635634898.375,0,0,16.680758426673982,0.0,3.0
1635634898.84375,0,0,0.0,0.0,3.0
1635634899.3125,0,0,59.4172731711726,0.0,3.0
1635634899.78125,0,0,15.788240954499356,0.0,3.0
1635634900.25,0,0,0.0,0.0,3.0
1635634900.71875,0,0,8.691223045042113,0.0,3.0
1635634901.1875,0,0,177.59303686612043,0.0,3.0
1635634901.65625,0,0,0.0,0.0,3.0
1635634902.125,0,0,39.23320649529164,0.0,3.0
1635634902.59375,0,0,97.33646814141024,0.0,3.0
1635634903.0625,0,0,90.26422989267869,0.0,3.0
1635634903.53125,0,0,0.0,0.0,3.0
1635634904.0,0,0,59.1586328318525,0.0,3.0
1635634904.46875,0,0,18.02730527851868,0.0,3.0
1635634904.9375,0,0,0.0,0.0,3.0
1635634905.40625,0,0,79.3310030780612,0.0,3.0
1635634905.875,0,0,42.14323939314394,0.0,3.0
1635634906.34375,0,0,0.0,0.0,3.0
1635634906.8125,0,0,16.449688313601158,0.0,3.0
1635634907.28125,0,0,67.960436952718,0.0,3.0
1635634907.75,0,0,-3.02643029803659,0.0,3.0
1635634908.21875,0,0,40.18070641631131,0.0,3.0
1635634908.6875,0,0,18.504995058318567,0.0,3.0
1635634909.15625,0,0,0.0,0.0,3.0
1635634909.625,0,0,79.7445915628349,0.0,3.0
1635634910.09375,0,0,0.0,0.0,3.0
1635634910.5625,0,0,8.35508421119134,0.0,3.0
1635634911.03125,0,0,91.61584182115932,0.0,3.0
1635634911.5,0,0,-10.367226307547153,0.0,3.0
1635634911.96875,0,0,-4.014659141097426,0.0,3.0
1635634912.4375,0,0,24.041739873974958,0.0,3.0
1635634912.90625,0,0,122.43644293510089,0.0,3.0
1635634913.375,0,0,-80.97028831990563,0.0,3.0
1635634913.84375,0,0,18.245159894664305,0.0,3.0
1635634914.3125,0,0,0.0,0.0,3.0
1635634914.78125,0,0,181.94139551921918,0.0,3.0
1635634915.25,0,0,0.0,0.0,3.0
1635634915.71875,0,0,67.06223801526019,0.0,3.0
1635634916.1875,0,0,0.0,0.0,3.0
1635634916.65625,0,0,16.789941271361993,0.0,3.0
1635634917.125,0,0,44.709547005000836,0.0,3.0
1635634917.59375,0,0,21.329408899752114,0.0,3.0
1635634918.0625,0,0,0.0,0.0,3.0
1635634918.53125,0,0,1.1967504841077676,0.0,3.0
1635634919.0,0,0,0.0,0.0,3.0
1635634919.46875,0,0,123.59868573719416,0.0,3.0
1635634919.9375,0,0,-16.09893222239657,0.0,3.0
1635634920.40625,0,0,-0.5282271587026934,0.0,3.0
1635634920.875,0,0,75.00512295773204,0.0,3.0
1635634921.34375,0,0,12.132120826264035,0.0,3.0
1635634921.8125,0,0,0.0,0.0,3.0
1635634922.28125,0,0,22.616028008397922,0.0,3.0
1635634922.75,0,0,0.0,0.0,3.0
1635634923.21875,0,0,59.307625942506476,0.0,3.0
1635634923.6875,0,0,-43.26488496715151,0.0,3.0
1635634924.15625,0,0,39.35984152415132,0.0,3.0
1635634924.625,0,0,0.0,0.0,3.0
1635634925.09375,0,0,67.77943803079256,0.0,3.0
1635634925.5625,0,0,9.421569880576898,0.0,3.0
1635634926.03125,0,0,19.782767521047685,0.0,3.0
1635634926.5,0,0,0.0,0.0,3.0
1635634926.96875,0,0,60.55650465057286,0.0,3.0
1635634927.4375,0,0,48.270487628198886,0.0,3.0
1635634927.90625,0,0,0.0,0.0,3.0
1635634928.375,0,0,31.031951707875656,0.0,3.0
1635634928.84375,0,0,75.99773249631272,0.0,3.0
1635634929.3125,0,0,-42.63517873599451,0.0,3.0
1635634929.78125,0,0,27.20725152378397,0.0,3.0
1635634930.25,0,0,29.66661347032769,0.0,3.0
1635634930.71875,0,0,0.0,0.0,3.0
1635634931.1875,0,0,19.148555408439684,0.0,3.0
1635634931.65625,0,0,31.889086282318623,0.0,3.0
1635634932.125,0,0,0.0,0.0,3.0
1635634932.59375,0,0,16.457837948139407,0.0,3.0
1635634933.0625,0,0,0.0,0.0,3.0
1635634933.53125,0,0,0.0,0.0,3.0
1635634934.0,0,0,22.52698698898469,0.0,3.0
1635634934.46875,0,0,17.553339892494293,0.0,3.0
1635634934.9375,0,0,0.0,0.0,3.0
1635634935.40625,0,0,18.32337106849311,0.0,3.0
1635634935.875,0,0,26.21150759183051,0.0,3.0
1635634936.34375,0,0,0.0,0.0,3.0
1635634936.8125,0,0,28.875710223513085,0.0,3.0
1635634937.28125,0,0,15.451220605467752,0.0,3.0
1635634937.75,0,0,15.8672113953824,0.0,3.0
1635634938.21875,0,0,0.0,0.0,3.0
1635634938.6875,0,0,49.03831228987038,0.0,3.0
1635634939.15625,0,0,-48.39027966690851,0.0,3.0
1635634939.625,0,0,124.10866057710489,0.0,3.0
1635634940.09375,0,0,9.400693020137235,0.0,3.0
1635634940.5625,0,0,56.33921104772119,0.0,3.0
1635634941.03125,0,0,0.0,0.0,3.0
1635634941.5,0,0,72.73385014569894,0.0,3.0
1635634941.96875,0,0,0.0,0.0,3.0
1635634942.4375,0,0,36.43359666749704,0.0,3.0
1635634942.90625,0,0,43.375779877751945,0.0,3.0
1635634943.375,0,0,0.0,0.0,3.0
1635634943.84375,0,0,0.0,0.0,3.0
1635634944.3125,0,0,26.39844781396117,0.0,3.0
1635634944.78125,0,0,19.844968069529887,0.0,3.0
1635634945.25,0,0,3.3410617634373505,0.0,3.0
1635634945.71875,0,0,128.28280550583236,0.0,3.0
1635634946.1875,0,0,0.0,0.0,3.0
1635634946.65625,0,0,34.17796585335063,0.0,3.0
1635634947.125,0,0,19.800726079543054,0.0,3.0
1635634947.59375,0,0,23.55466673877106,0.0,3.0
1635634948.0625,0,0,119.55845849915887,0.0,3.0
1635634948.53125,0,0,49.94368208482014,0.0,3.0
1635634949.0,0,0,0.7883642176197178,0.0,3.0
1635634949.46875,0,0,-1.606354564550821,0.0,3.0
1635634949.9375,0,0,114.48385245684365,0.0,3.0
1635634950.40625,0,0,49.03246491044655,0.0,3.0
1635634950.875,0,0,0.0,0.0,3.0
1635634951.34375,0,0,2.2950823415040236,0.0,3.0
1635634951.8125,0,0,151.4855415590456,0.0,3.0
1635634952.28125,0,0,63.6452228666051,0.0,3.0
1635634952.75,0,0,0.0,0.0,3.0
1635634953.21875,0,0,13.2281488530929,0.0,3.0
1635634953.6875,0,0,119.22880457124954,0.0,3.0
1635634954.15625,0,0,0.0,0.0,3.0
1635634954.625,0,0,50.48280641204308,0.0,3.0
1635634955.09375,0,0,25.151589861972486,0.0,3.0
1635634955.5625,0,0,50.087724502582944,0.0,3.0
1635634956.03125,0,0,0.0,0.0,3.0
1635634956.5,0,0,-1.1899222287510707,0.0,3.0
1635634956.96875,0,0,26.95827453853031,0.0,3.0
1635634957.4375,0,0,0.0,0.0,3.0
1635634957.90625,0,0,136.30278334021696,0.0,3.0
1635634958.375,0,0,31.03583180308729,0.0,3.0
1635634958.84375,0,0,27.357608788142155,0.0,3.0
1635634959.3125,0,0,0.0,0.0,3.0
1635634959.78125,0,0,131.41262669698614,0.0,3.0
1635634960.25,0,0,36.392518978586224,0.0,3.0
1635634960.71875,0,0,0.0,0.0,3.0
1635634961.1875,0,0,24.973722277154838,0.0,3.0
1635634961.65625,0,0,0.0,0.0,3.0
1635634962.125,0,0,0.0,0.0,3.0
1635634962.59375,0,0,14.288872381400921,0.0,3.0
1635634963.0625,0,0,44.921843436318845,0.0,3.0
1635634963.53125,0,0,106.65714893662133,0.0,3.0
1635634964.0,0,0,0.0,0.0,3.0
1635634964.46875,0,0,37.528020615626694,0.0,3.0
1635634964.9375,0,0,29.11904807042778,0.0,3.0
1635634965.40625,0,0,0.0,0.0,3.0
1635634965.875,0,0,125.25999802364016,0.0,3.0
1635634966.34375,0,0,28.534381175299217,0.0,3.0
1635634966.8125,0,0,30.844545848957996,0.0,3.0
1635634967.28125,0,0,0.0,0.0,3.0
1635634967.75,0,0,152.4419499651937,0.0,3.0
1635634968.21875,0,0,34.353185786114246,0.0,3.0
1635634968.6875,0,0,0.0,0.0,3.0
1635634969.15625,0,0,35.38037114438026,0.0,3.0
1635634969.625,0,0,106.2584634367727,0.0,3.0
1635634970.09375,0,0,0.0,0.0,3.0
1635634970.5625,0,0,46.616859705347565,0.0,3.0
1635634971.03125,0,0,0.0,0.0,3.0
1635634971.5,0,0,77.19787863865818,0.0,3.0
1635634971.96875,0,0,-39.81365038947405,0.0,3.0
1635634972.4375,0,0,46.920469481273436,0.0,3.0
1635634972.90625,0,0,25.55203255195063,0.0,3.0
1635634973.375,0,0,0.0,0.0,3.0
1635634973.84375,0,0,-33.98889082425023,0.0,3.0
1635634974.3125,0,0,41.20058502031111,0.0,3.0
1635634974.78125,0,0,0.0,0.0,3.0
1635634975.25,0,0,25.308010892619066,0.0,3.0
1635634975.71875,0,0,106.52600989662311,0.0,3.0
1635634976.1875,0,0,0.0,0.0,3.0
1635634976.65625,0,0,0.0,0.0,3.0
1635634977.125,0,0,0.0,0.0,3.0
1635634977.59375,0,0,87.8651357378836,0.0,3.0
1635634978.0625,0,0,8.328424812300007,0.0,3.0
1635634978.53125,0,0,21.661256727690482,0.0,3.0
1635634979.0,0,0,0.0,0.0,3.0
1635634979.46875,0,0,140.72308982720622,0.0,3.0
1635634979.9375,0,0,4.608853890481627,0.0,3.0
1635634980.40625,0,0,31.54096600089193,0.0,3.0
1635634980.875,0,0,0.0,0.0,3.0
1635634981.34375,0,0,137.8168147925879,0.0,3.0
1635634981.8125,0,0,38.03292159373172,0.0,3.0
1635634982.28125,0,0,0.0,0.0,3.0
1635634982.75,0,0,0.0,0.0,3.0
1635634983.21875,0,0,176.51703796424192,0.0,3.0
1635634983.6875,0,0,0.0,0.0,3.0
1635634984.15625,0,0,123.52146252165089,0.0,3.0
1635634984.625,0,0,0.0,0.0,3.0
1635634985.09375,0,0,55.45164666082791,0.0,3.0
1635634985.5625,0,0,0.0,0.0,3.0
1635634986.03125,0,0,18.53597392276683,0.0,3.0
1635634986.5,0,0,19.481213232339183,0.0,3.0
1635634986.96875,0,0,0.0,0.0,3.0
1635634987.4375,0,0,114.50983725491653,0.0,3.0
1635634987.90625,0,0,0.0,0.0,3.0
1635634988.375,0,0,48.346568196801556,0.0,3.0
1635634988.84375,0,0,14.265012405712634,0.0,3.0
1635634989.3125,0,0,32.802290391390635,0.0,3.0
1635634989.78125,0,0,0.0,0.0,3.0
1635634990.25,0,0,21.614260994831184,0.0,3.0
1635634990.71875,0,0,29.174412580741503,0.0,3.0
1635634991.1875,0,0,0.0,0.0,3.0
1635634991.65625,0,0,29.394504047204492,0.0,3.0
1635634992.125,0,0,16.699171523694005,0.0,3.0
1635634992.59375,0,0,0.0,0.0,3.0
1635634993.0625,0,0,63.86094418345673,0.0,3.0
1635634993.53125,0,0,132.17203678505652,0.0,3.0
1635634994.0,0,0,0.0,0.0,3.0
1635634994.46875,0,0,70.38181896980186,0.0,3.0
1635634994.9375,0,0,3.523039740271582,0.0,3.0
1635634995.40625,0,0,0.0,0.0,3.0
1635634995.875,0,0,6.019710125020894,0.0,3.0
1635634996.34375,0,0,0.0,0.0,3.0
1635634996.8125,0,0,44.03967029113885,0.0,3.0
1635634997.28125,0,0,24.35493517296801,0.0,3.0
1635634997.75,0,0,13.60362422430329,0.0,3.0
1635634998.21875,0,0,0.0,0.0,3.0
1635634998.6875,0,0,49.68362964960802,0.0,3.0
1635634999.15625,0,0,0.0,0.0,3.0
1635634999.625,0,0,18.276381261517464,0.0,3.0
1635635000.09375,0,0,35.663573468461486,0.0,3.0
1635635000.5625,0,0,17.78678415631104,0.0,3.0
1635635001.03125,0,0,0.0,0.0,3.0
1635635001.5,0,0,55.62315501241054,0.0,3.0
1635635001.96875,0,0,0.0,0.0,3.0
1635635002.4375,0,0,13.142602259479157,0.0,3.0
1635635002.90625,0,0,87.05830594228883,0.0,3.0
1635635003.375,0,0,-17.38783317309103,0.0,3.0
1635635003.84375,0,0,0.0,0.0,3.0
1635635004.3125,0,0,180.59467102206997,0.0,3.0
1635635004.78125,0,0,17.87497618741856,0.0,3.0
1635635005.25,0,0,25.37281319804746,0.0,3.0
1635635005.71875,0,0,36.35795724472138,0.0,3.0
1635635006.1875,0,0,140.08604816006485,0.0,3.0
1635635006.65625,0,0,32.23304833243858,0.0,3.0
1635635007.125,0,0,0.0,0.0,3.0
1635635007.59375,0,0,0.0,0.0,3.0
1635635008.0625,0,0,149.46174675270572,0.0,3.0
1635635008.53125,0,0,44.18660921731771,0.0,3.0
1635635009.0,0,0,0.0,0.0,3.0
1635635009.46875,0,0,0.0,0.0,3.0
1635635009.9375,0,0,74.63501562408707,0.0,3.0
1635635010.40625,0,0,-28.384506572234013,0.0,3.0
1635635010.875,0,0,25.335653653215935,0.0,3.0
1635635011.34375,0,0,0.0,0.0,3.0
1635635011.8125,0,0,164.7972928606001,0.0,3.0
1635635012.28125,0,0,-17.049012649274804,0.0,3.0
1635635012.75,0,0,41.17473860202815,0.0,3.0
1635635013.21875,0,0,0.0,0.0,3.0
1635635013.6875,0,0,181.53278535257243,0.0,3.0
1635635014.15625,0,0,0.0,0.0,3.0
1635635014.625,0,0,39.180645319079964,0.0,3.0
1635635015.09375,0,0,0.0,0.0,3.0
1635635015.5625,0,0,0.0,0.0,3.0
1635635016.03125,0,0,0.0,0.0,3.0
1635635016.5,0,0,0.0,0.0,3.0
1635635016.96875,0,0,32.58243902776832,0.0,3.0
1635635017.4375,0,0,0.0,0.0,3.0
1635635017.90625,0,0,36.606961630176855,0.0,3.0
1635635018.375,0,0,47.20408372634073,0.0,3.0
1635635018.84375,0,0,40.8262272930935,0.0,3.0
1635635019.3125,0,0,0.0,0.0,3.0
1635635019.78125,0,0,109.62863308758337,0.0,3.0
1635635020.25,0,0,0.0,0.0,3.0
1635635020.71875,0,0,25.447656253731754,0.0,3.0
1635635021.1875,0,0,16.119118753657105,0.0,3.0
1635635021.65625,0,0,105.90735887905453,0.0,3.0
1635635022.125,0,0,0.0,0.0,3.0
1635635022.59375,0,0,66.34419518869568,0.0,3.0
1635635023.0625,0,0,35.66733017309664,0.0,3.0
1635635023.53125,0,0,0.0,0.0,3.0
1635635024.0,0,0,141.764033669333,0.0,3.0
1635635024.46875,0,0,42.251797724653706,0.0,3.0
1635635024.9375,0,0,0.0,0.0,3.0
1635635025.40625,0,0,30.640683974094525,0.0,3.0
1635635025.875,0,0,42.15049203288387,0.0,3.0
1635635026.34375,0,0,25.69059653993917,0.0,3.0
1635635026.8125,0,0,24.53859300322959,0.0,3.0
1635635027.28125,0,0,0.0,0.0,3.0
1635635027.75,0,0,81.86770131476538,0.0,3.0
1635635028.21875,0,0,-4.135295026141075,0.0,3.0
1635635028.6875,0,0,41.500838339013164,0.0,3.0
1635635029.15625,0,0,0.0,0.0,3.0
1635635029.625,0,0,80.05770238530877,0.0,3.0
1635635030.09375,0,0,28.88333121169413,0.0,3.0
1635635030.5625,0,0,38.68658224635581,0.0,3.0
1635635031.03125,0,0,0.0,0.0,3.0
1635635031.5,0,0,91.53178896453021,0.0,3.0
1635635031.96875,0,0,0.0,0.0,3.0
1635635032.4375,0,0,40.227848891600125,0.0,3.0
1635635032.90625,0,0,14.161982711251108,0.0,3.0
1635635033.375,0,0,0.0,0.0,3.0
1635635033.84375,0,0,103.26328911125246,0.0,3.0
1635635034.3125,0,0,37.401065334436765,0.0,3.0
1635635034.78125,0,0,10.22064357982961,0.0,3.0
1635635035.25,0,0,7.41843995412399,0.0,3.0
1635635035.71875,0,0,96.33109416445572,0.0,3.0
1635635036.1875,0,0,33.40495646655507,0.0,3.0
1635635036.65625,0,0,0.0,0.0,3.0
1635635037.125,0,0,20.163874665209967,0.0,3.0
1635635037.59375,0,0,95.98858214121744,0.0,3.0
1635635038.0625,0,0,-28.1934270985549,0.0,3.0
1635635038.53125,0,0,35.327083899563156,0.0,3.0
1635635039.0,0,0,0.0,0.0,3.0
1635635039.46875,0,0,45.00093559297733,0.0,3.0
1635635039.9375,0,0,7.877997115134107,0.0,3.0
1635635040.40625,0,0,29.494292212095775,0.0,3.0
1635635040.875,0,0,0.0,0.0,3.0
