timestamp,mean_pulse_rate,pulse_rate_std,mean_pulse_amplitude,pulse_amplitude_std,block
1624704697.84375,0,0,0.0,0.0,1.0
1624704698.3125,0,0,-5.773535566973312,0.0,1.0
1624704698.78125,0,0,256.6803197798516,0.0,1.0
1624704699.25,0,0,536.6804873107683,0.0,1.0
1624704699.71875,0,0,0.0,0.0,1.0
1624704700.1875,0,0,0.0,0.0,1.0
1624704700.65625,0,0,246.78994299149824,0.0,1.0
1624704701.125,0,0,248.7136720185525,0.0,1.0
1624704701.59375,0,0,-217.48981936644853,0.0,1.0
1624704702.0625,0,0,304.1855942230793,0.0,1.0
1624704702.53125,0,0,21.516365013650784,0.0,1.0
1624704703.0,0,0,21.12746507009828,0.0,1.0
1624704703.46875,0,0,58.61255982432279,0.0,1.0
1624704703.9375,0,0,0.0,0.0,1.0
1624704704.40625,0,0,29.771454964310603,0.0,1.0
1624704704.875,0,0,92.08961869644419,0.0,1.0
1624704705.34375,0,0,33.51985742010726,0.0,1.0
1624704705.8125,0,0,-3.0183030615098083,0.0,1.0
1624704706.28125,0,0,59.99584517323914,0.0,1.0
1624704706.75,0,0,60.51117753133118,0.0,1.0
1624704707.21875,0,0,149.08057029266365,0.0,1.0
1624704707.6875,0,0,245.9265231824574,0.0,1.0
1624704708.15625,0,0,0.0,0.0,1.0
1624704708.625,0,0,57.3629453339669,0.0,1.0
1624704709.09375,0,0,49.06590188656277,0.0,1.0
1624704709.5625,0,0,76.82661694172717,0.0,1.0
1624704710.03125,0,0,0.0,0.0,1.0
1624704710.5,0,0,14.873355391966575,0.0,1.0
1624704710.96875,0,0,0.0,0.0,1.0
1624704711.4375,0,0,47.62466568806622,0.0,1.0
1624704711.90625,0,0,18.904369522718294,0.0,1.0
1624704712.375,0,0,0.0,0.0,1.0
1624704712.84375,0,0,140.7784102121946,0.0,1.0
1624704713.3125,0,0,0.0,0.0,1.0
1624704713.78125,0,0,109.74143641626904,0.0,1.0
1624704714.25,0,0,0.0,0.0,1.0
1624704714.71875,0,0,13.712177586173503,0.0,1.0
1624704715.1875,0,0,32.897692309351065,0.0,1.0
1624704715.65625,0,0,0.0,0.0,1.0
1624704716.125,0,0,152.04632950715109,0.0,1.0
1624704716.59375,0,0,-55.66553918508277,0.0,1.0
1624704717.0625,0,0,198.35299108466583,0.0,1.0
1624704717.53125,0,0,126.4059879668299,0.0,1.0
1624704718.0,0,0,49.627163628135975,0.0,1.0
1624704718.46875,0,0,426.8882260869107,0.0,1.0
1624704718.9375,0,0,130.9130450198015,0.0,1.0
1624704719.40625,0,0,0.0,0.0,1.0
1624704719.875,0,0,50.38774705025351,0.0,1.0
1624704720.34375,0,0,-30.08524125007144,0.0,1.0
1624704720.8125,0,0,0.0,0.0,1.0
1624704721.28125,0,0,133.23512412666304,0.0,1.0
1624704721.75,0,0,-109.20842475846463,0.0,1.0
1624704722.21875,0,0,118.28055300327878,0.0,1.0
1624704722.6875,0,0,0.0,0.0,1.0
1624704723.15625,0,0,0.0,0.0,1.0
1624704723.625,0,0,19.10909500875565,0.0,1.0
1624704724.09375,0,0,26.87163672380261,0.0,1.0
1624704724.5625,0,0,0.0,0.0,1.0
1624704725.03125,0,0,18.239031577529193,0.0,1.0
1624704725.5,0,0,0.0,0.0,1.0
1624704725.96875,0,0,11.012758030608474,0.0,1.0
1624704726.4375,0,0,0.0,0.0,1.0
1624704726.90625,0,0,13.855302348343214,0.0,1.0
1624704727.375,0,0,14.822085785111746,0.0,1.0
1624704727.84375,0,0,0.0,0.0,1.0
1624704728.3125,0,0,36.231099218595425,0.0,1.0
1624704728.78125,0,0,22.072117170638762,0.0,1.0
1624704729.25,0,0,0.0,0.0,1.0
1624704729.71875,0,0,16.42072612012856,0.0,1.0
1624704730.1875,0,0,19.731380069318647,0.0,1.0
1624704730.65625,0,0,0.0,0.0,1.0
1624704731.125,0,0,8.598400634175768,0.0,1.0
1624704731.59375,0,0,134.17428277875678,0.0,1.0
1624704732.0625,0,0,-15.80820751096824,0.0,1.0
1624704732.53125,0,0,0.0,0.0,1.0
1624704733.0,0,0,20.15370027532244,0.0,1.0
1624704733.46875,0,0,27.78778106642784,0.0,1.0
1624704733.9375,0,0,-7.790797265068793,0.0,1.0
1624704734.40625,0,0,-21.553126573935174,0.0,1.0
1624704734.875,0,0,190.8817974854462,0.0,1.0
1624704735.34375,0,0,0.0,0.0,1.0
1624704735.8125,0,0,122.19312419895176,0.0,1.0
1624704736.28125,0,0,47.63856467992468,0.0,1.0
1624704736.75,0,0,0.0,0.0,1.0
1624704737.21875,0,0,16.622399896826455,0.0,1.0
1624704737.6875,0,0,229.00801576158892,0.0,1.0
1624704738.15625,0,0,0.0,0.0,1.0
1624704738.625,0,0,225.84158859951953,0.0,1.0
1624704739.09375,0,0,147.07952542054838,0.0,1.0
1624704739.5625,0,0,0.0,0.0,1.0
1624704740.03125,0,0,0.0,0.0,1.0
1624704740.5,0,0,31.963018548478637,0.0,1.0
1624704740.96875,0,0,45.40709059656643,0.0,1.0
1624704741.4375,0,0,0.0,0.0,1.0
1624704741.90625,0,0,179.43805032883975,0.0,1.0
1624704742.375,0,0,0.0,0.0,1.0
1624704742.84375,0,0,0.0,0.0,1.0
1624704743.3125,0,0,88.06566849618257,0.0,1.0
1624704743.78125,0,0,26.1558684274409,0.0,1.0
1624704744.25,0,0,-5.4097730487242535,0.0,1.0
1624704744.71875,0,0,119.42131811259064,0.0,1.0
1624704745.1875,0,0,26.272293939014876,0.0,1.0
1624704745.65625,0,0,110.52292356891908,0.0,1.0
1624704746.125,0,0,29.78968600171896,0.0,1.0
1624704746.59375,0,0,0.0,0.0,1.0
1624704747.0625,0,0,16.411849210454655,0.0,1.0
1624704747.53125,0,0,0.0,0.0,1.0
1624704748.0,0,0,55.35842845580502,0.0,1.0
1624704748.46875,0,0,53.10834427192875,0.0,1.0
1624704748.9375,0,0,120.45934755806404,0.0,1.0
1624704749.40625,0,0,34.223359459034846,0.0,1.0
1624704749.875,0,0,69.28606355467237,0.0,1.0
1624704750.34375,0,0,154.2222003918543,0.0,1.0
1624704750.8125,0,0,43.549430334902006,0.0,1.0
1624704751.28125,0,0,0.0,0.0,1.0
1624704751.75,0,0,81.27040653164019,0.0,1.0
1624704752.21875,0,0,0.0,0.0,1.0
1624704752.6875,0,0,5.563824715557773,0.0,1.0
1624704753.15625,0,0,27.79419685846587,0.0,1.0
1624704753.625,0,0,-25.560829863972206,0.0,1.0
1624704754.09375,0,0,85.78699709626267,0.0,1.0
1624704754.5625,0,0,-8.249795094344117,0.0,1.0
1624704755.03125,0,0,41.70520042511526,0.0,1.0
1624704755.5,0,0,170.43600310227467,0.0,1.0
1624704755.96875,0,0,0.0,0.0,1.0
1624704756.4375,0,0,205.0179942457705,0.0,1.0
1624704756.90625,0,0,59.7721117244162,0.0,1.0
1624704757.375,0,0,0.0,0.0,1.0
1624704757.84375,0,0,0.0,0.0,1.0
1624704758.3125,0,0,31.13573401126795,0.0,1.0
1624704758.78125,0,0,0.0,0.0,1.0
1624704759.25,0,0,407.8055767729149,0.0,1.0
1624704759.71875,0,0,78.77513866117121,0.0,1.0
1624704760.1875,0,0,114.78744484884443,0.0,1.0
1624704760.65625,0,0,74.78134282849847,0.0,1.0
1624704761.125,0,0,-148.5151638340261,0.0,1.0
1624704761.59375,0,0,320.59725714795906,0.0,1.0
1624704762.0625,0,0,0.0,0.0,1.0
1624704762.53125,0,0,101.36091776131354,0.0,1.0
1624704763.0,0,0,131.54400284860142,0.0,1.0
1624704763.46875,0,0,25.47609350946216,0.0,1.0
1624704763.9375,0,0,36.87428582690905,0.0,1.0
1624704764.40625,0,0,-8.504681703554066,0.0,1.0
1624704764.875,0,0,21.012504783621967,0.0,1.0
1624704765.34375,0,0,46.354202607064146,0.0,1.0
1624704765.8125,0,0,0.0,0.0,1.0
1624704766.28125,0,0,157.49304507367233,0.0,1.0
1624704766.75,0,0,-4.087420890649782,0.0,1.0
1624704767.21875,0,0,0.0,0.0,1.0
1624704767.6875,0,0,10.995818602449077,0.0,1.0
1624704768.15625,0,0,9.090174848406313,0.0,1.0
1624704768.625,0,0,0.0,0.0,1.0
1624704769.09375,0,0,16.336462726274387,0.0,1.0
1624704769.5625,0,0,1.5597275756017785,0.0,1.0
1624704770.03125,0,0,-0.09461975950346752,0.0,1.0
1624704770.5,0,0,146.91641798710987,0.0,1.0
1624704770.96875,0,0,0.0,0.0,1.0
1624704771.4375,0,0,-20.28781350569203,0.0,1.0
1624704771.90625,0,0,53.21280445920546,0.0,1.0
1624704772.375,0,0,0.0,0.0,1.0
1624704772.84375,0,0,58.30232536598248,0.0,1.0
1624704773.3125,0,0,0.0,0.0,1.0
1624704773.78125,0,0,15.962110000625051,0.0,1.0
1624704774.25,0,0,0.0,0.0,1.0
1624704774.71875,0,0,0.0,0.0,1.0
1624704775.1875,0,0,14.08159762591889,0.0,1.0
1624704775.65625,0,0,19.263209645074113,0.0,1.0
1624704776.125,0,0,3.444789747357743,0.0,1.0
1624704776.59375,0,0,57.666975036533856,0.0,1.0
1624704777.0625,0,0,0.0,0.0,1.0
1624704777.53125,0,0,9.456260273105308,0.0,1.0
1624704778.0,0,0,0.0,0.0,1.0
1624704778.46875,0,0,62.706202133628985,0.0,1.0
1624704778.9375,0,0,0.0,0.0,1.0
1624704779.40625,0,0,22.257177213762645,0.0,1.0
1624704779.875,0,0,16.44551281699016,0.0,1.0
1624704780.34375,0,0,8.943518636782294,0.0,1.0
1624704780.8125,0,0,4.246979396571017,0.0,1.0
1624704781.28125,0,0,0.0,0.0,1.0
1624704781.75,0,0,23.93334170941152,0.0,1.0
1624704782.21875,0,0,8.706532792886872,0.0,1.0
1624704782.6875,0,0,0.0,0.0,1.0
1624704783.15625,0,0,96.63719945464787,0.0,1.0
1624704783.625,0,0,0.0,0.0,1.0
1624704784.09375,0,0,8.016842561474302,0.0,1.0
1624704784.5625,0,0,0.0,0.0,1.0
1624704785.03125,0,0,0.0,0.0,1.0
1624704785.5,0,0,20.532276343640522,0.0,1.0
1624704785.96875,0,0,25.787650895828826,0.0,1.0
1624704786.4375,0,0,32.57069947734412,0.0,1.0
1624704786.90625,0,0,74.08654672345479,0.0,1.0
1624704787.375,0,0,42.35153322964606,0.0,1.0
1624704787.84375,0,0,0.0,0.0,1.0
1624704788.3125,0,0,0.0,0.0,1.0
1624704788.78125,0,0,24.07673249392241,0.0,1.0
1624704789.25,0,0,8.72804730092551,0.0,1.0
1624704789.71875,0,0,0.0,0.0,1.0
1624704790.1875,0,0,37.21449041063627,0.0,1.0
1624704790.65625,0,0,0.0,0.0,1.0
1624704791.125,0,0,16.679368276173125,0.0,1.0
1624704791.59375,0,0,16.334475949804794,0.0,1.0
1624704792.0625,0,0,41.8853989323614,0.0,1.0
1624704792.53125,0,0,21.60313853703495,0.0,1.0
1624704793.0,0,0,9.121564053539926,0.0,1.0
1624704793.46875,0,0,0.0,0.0,1.0
1624704793.9375,0,0,64.98791718058457,0.0,1.0
1624704794.40625,0,0,-8.942571959961727,0.0,1.0
1624704794.875,0,0,11.075725585833622,0.0,1.0
1624704795.34375,0,0,5.441208604997211,0.0,1.0
1624704795.8125,0,0,36.5068967631207,0.0,1.0
1624704796.28125,0,0,0.0,0.0,1.0
1624704796.75,0,0,0.0,0.0,1.0
1624704797.21875,0,0,20.780245368502527,0.0,1.0
1624704797.6875,0,0,-43.96041729656417,0.0,1.0
1624704798.15625,0,0,-37.28872263208183,0.0,1.0
1624704798.625,0,0,15.589330232676154,0.0,1.0
1624704799.09375,0,0,21.864875103939784,0.0,1.0
1624704799.5625,0,0,0.0,0.0,1.0
1624704800.03125,0,0,23.62714187104881,0.0,1.0
1624704800.5,0,0,87.8750032939083,0.0,1.0
1624704800.96875,0,0,-22.092368520830146,0.0,1.0
1624704801.4375,0,0,0.0,0.0,1.0
1624704801.90625,0,0,0.0,0.0,1.0
1624704802.375,0,0,46.26139967351736,0.0,1.0
1624704802.84375,0,0,20.29112562193915,0.0,1.0
1624704803.3125,0,0,0.0,0.0,1.0
1624704803.78125,0,0,113.37132584696991,0.0,1.0
1624704804.25,0,0,0.0,0.0,1.0
1624704804.71875,0,0,8.998644513939594,0.0,1.0
1624704805.1875,0,0,15.9432244339789,0.0,1.0
1624704805.65625,0,0,131.39967038792273,0.0,1.0
1624704806.125,0,0,7.332929690778112,0.0,1.0
1624704806.59375,0,0,19.50534434008394,0.0,1.0
1624704807.0625,0,0,0.0,0.0,1.0
1624704807.53125,0,0,46.97475438812433,0.0,1.0
1624704808.0,0,0,16.436972786086383,0.0,1.0
1624704808.46875,0,0,7.0911623837032485,0.0,1.0
1624704808.9375,0,0,15.702540819511347,0.0,1.0
1624704809.40625,0,0,0.0,0.0,1.0
1624704809.875,0,0,122.071810081471,0.0,1.0
1624704810.34375,0,0,12.456837272160282,0.0,1.0
1624704810.8125,0,0,0.0,0.0,1.0
1624704811.28125,0,0,40.83674794064035,0.0,1.0
1624704811.75,0,0,25.588529142598176,0.0,1.0
1624704812.21875,0,0,37.04404694088906,0.0,1.0
1624704812.6875,0,0,137.6772771863475,0.0,1.0
1624704813.15625,0,0,49.238944865173444,0.0,1.0
1624704813.625,0,0,0.0,0.0,1.0
1624704814.09375,0,0,11.939771146818368,0.0,1.0
1624704814.5625,0,0,12.157182891071294,0.0,1.0
1624704815.03125,0,0,0.0,0.0,1.0
1624704815.5,0,0,13.47753916507838,0.0,1.0
1624704815.96875,0,0,13.159613183695503,0.0,1.0
1624704816.4375,0,0,9.546799110986381,0.0,1.0
1624704816.90625,0,0,52.9644023822727,0.0,1.0
1624704817.375,0,0,6.04837090775975,0.0,1.0
1624704817.84375,0,0,15.25350532284442,0.0,1.0
1624704818.3125,0,0,14.01597062409299,0.0,1.0
1624704818.78125,0,0,0.0,0.0,1.0
1624704819.25,0,0,0.0,0.0,1.0
1624704819.71875,0,0,13.62315262404647,0.0,1.0
1624704820.1875,0,0,0.0,0.0,1.0
1624704820.65625,0,0,14.628583439144023,0.0,1.0
1624704821.125,0,0,13.381035832593511,0.0,1.0
1624704821.59375,0,0,36.585595394141514,0.0,1.0
1624704822.0625,0,0,-1.3905094350293579,0.0,1.0
1624704822.53125,0,0,22.610525482874486,0.0,1.0
1624704823.0,0,0,0.0,0.0,1.0
1624704823.46875,0,0,0.0,0.0,1.0
1624704823.9375,0,0,25.19939388311508,0.0,1.0
1624704824.40625,0,0,-3.4291886028945724,0.0,1.0
1624704824.875,0,0,5.9720772906806445,0.0,1.0
1624704825.34375,0,0,10.212639157010221,0.0,1.0
1624704825.8125,0,0,18.578469649259958,0.0,1.0
1624704826.28125,0,0,0.0,0.0,1.0
1624704826.75,0,0,13.763691924795422,0.0,1.0
1624704827.21875,0,0,0.0,0.0,1.0
1624704827.6875,0,0,15.700871060935546,0.0,1.0
1624704828.15625,0,0,21.14607980795949,0.0,1.0
1624704828.625,0,0,0.0,0.0,1.0
1624704829.09375,0,0,18.357172507704135,0.0,1.0
1624704829.5625,0,0,9.457923058343292,0.0,1.0
1624704830.03125,0,0,25.193430521183924,0.0,1.0
1624704830.5,0,0,18.84098066760537,0.0,1.0
1624704830.96875,0,0,10.464902114447382,0.0,1.0
1624704831.4375,0,0,0.0,0.0,1.0
1624704831.90625,0,0,110.80471486846318,0.0,1.0
1624704832.375,0,0,0.0,0.0,1.0
1624704832.84375,0,0,23.256444191826866,0.0,1.0
1624704833.3125,0,0,21.008133245147338,0.0,1.0
1624704833.78125,0,0,36.647178408107884,0.0,1.0
1624704834.25,0,0,112.06506896682242,0.0,1.0
1624704834.71875,0,0,-3.0076362812522324,0.0,1.0
1624704835.1875,0,0,14.50442602195419,0.0,1.0
1624704835.65625,0,0,26.777193786007732,0.0,1.0
1624704836.125,0,0,-0.687171654349414,0.0,1.0
1624704836.59375,0,0,0.0,0.0,1.0
1624704837.0625,0,0,46.80654831945908,0.0,1.0
1624704837.53125,0,0,-5.214651621990225,0.0,1.0
1624704838.0,0,0,0.0,0.0,1.0
1624704838.46875,0,0,39.14404323942875,0.0,1.0
1624704838.9375,0,0,0.0,0.0,1.0
1624704839.40625,0,0,12.097875419750823,0.0,1.0
1624704839.875,0,0,19.894395465977187,0.0,1.0
1624704840.34375,0,0,5.9232634480514275,0.0,1.0
1624704840.8125,0,0,9.826941542928738,0.0,1.0
1624704841.28125,0,0,0.0,0.0,1.0
1624704841.75,0,0,142.57669278498355,0.0,1.0
1624704842.21875,0,0,56.15827139883404,0.0,1.0
1624704842.6875,0,0,12.564919059964502,0.0,1.0
1624704843.15625,0,0,0.0,0.0,1.0
1624704843.625,0,0,34.041978561687664,0.0,1.0
1624704844.09375,0,0,-23.002520594935053,0.0,1.0
1624704844.5625,0,0,-75.6717762069334,0.0,1.0
1624704845.03125,0,0,226.76736353384328,0.0,1.0
1624704845.5,0,0,-83.71818842325192,0.0,1.0
1624704845.96875,0,0,245.92586974736935,0.0,1.0
1624704846.4375,0,0,0.0,0.0,1.0
1624704846.90625,0,0,26.35281216855712,0.0,1.0
1624704847.375,0,0,11.7804137106649,0.0,1.0
1624704847.84375,0,0,8.37476904616345,0.0,1.0
1624704848.3125,0,0,15.27245354398469,0.0,1.0
1624704848.78125,0,0,10.958560140429073,0.0,1.0
1624704849.25,0,0,10.289220436253329,0.0,1.0
1624704849.71875,0,0,13.049425206803104,0.0,1.0
1624704850.1875,0,0,0.0,0.0,1.0
1624704850.65625,0,0,20.357112250583096,0.0,1.0
1624704851.125,0,0,0.0,0.0,1.0
1624704851.59375,0,0,11.354084625850263,0.0,1.0
1624704852.0625,0,0,10.927186309539895,0.0,1.0
1624704852.53125,0,0,1.7308941064534447,0.0,1.0
1624704853.0,0,0,7.430088730502077,0.0,1.0
1624704853.46875,0,0,17.978675003082852,0.0,1.0
1624704853.9375,0,0,0.0,0.0,1.0
1624704854.40625,0,0,9.613508131522881,0.0,1.0
1624704854.875,0,0,10.680559185025075,0.0,1.0
1624704855.34375,0,0,0.0,0.0,1.0
1624704855.8125,0,0,0.0,0.0,1.0
1624704856.28125,0,0,0.0,0.0,1.0
1624704856.75,0,0,13.637966169439816,0.0,1.0
1624704857.21875,0,0,28.511119544823295,0.0,1.0
1624704857.6875,0,0,0.0,0.0,1.0
1624704858.15625,0,0,7.767939620039346,0.0,1.0
1624704858.625,0,0,74.57833052108603,0.0,1.0
1624704859.09375,0,0,0.0,0.0,1.0
1624704859.5625,0,0,4.960288220323574,0.0,1.0
1624704860.03125,0,0,4.535798622770157,0.0,1.0
1624704860.5,0,0,24.673118290721455,0.0,1.0
1624704860.96875,0,0,13.718463085070752,0.0,1.0
1624704861.4375,0,0,0.0,0.0,1.0
1624704861.90625,0,0,0.0,0.0,1.0
1624704862.375,0,0,93.74583888512304,0.0,1.0
1624704862.84375,0,0,-17.881221475067658,0.0,1.0
1624704863.3125,0,0,0.8065112945802271,0.0,1.0
1624704863.78125,0,0,0.0,0.0,1.0
1624704864.25,0,0,78.78271816746039,0.0,1.0
1624704864.71875,0,0,0.0,0.0,1.0
1624704865.1875,0,0,18.681947950701513,0.0,1.0
1624704865.65625,0,0,0.0,0.0,1.0
1624704866.125,0,0,18.88585868568338,0.0,1.0
1624704866.59375,0,0,0.0,0.0,1.0
1624704867.0625,0,0,21.20881780639344,0.0,1.0
1624704867.53125,0,0,23.675989149085435,0.0,1.0
1624704868.0,0,0,0.0,0.0,1.0
1624704868.46875,0,0,25.051198897480354,0.0,1.0
1624704868.9375,0,0,0.0,0.0,1.0
1624704869.40625,0,0,0.0,0.0,1.0
1624704869.875,0,0,12.537252807591738,0.0,1.0
1624704870.34375,0,0,0.0,0.0,1.0
1624704870.8125,0,0,24.858785342516253,0.0,1.0
1624704871.28125,0,0,0.0,0.0,1.0
1624704871.75,0,0,15.368799938188506,0.0,1.0
1624704872.21875,0,0,14.864008705163041,0.0,1.0
1624704872.6875,0,0,0.0,0.0,1.0
1624704873.15625,0,0,15.160467153794738,0.0,1.0
1624704873.625,0,0,0.0,0.0,1.0
1624704874.09375,0,0,17.124028447268405,0.0,1.0
1624704874.5625,0,0,-5.860010235490185,0.0,1.0
1624704875.03125,0,0,9.118803650005685,0.0,1.0
1624704875.5,0,0,15.78138833349776,0.0,1.0
1624704875.96875,0,0,0.0,0.0,1.0
1624704876.4375,0,0,16.360638752855102,0.0,1.0
1624704876.90625,0,0,17.28677768128003,0.0,1.0
1624704877.375,0,0,0.0,0.0,1.0
1624704877.84375,0,0,14.06173406420808,0.0,1.0
1624704878.3125,0,0,7.386102065554872,0.0,1.0
1624704878.78125,0,0,6.176273098597911,0.0,1.0
1624704879.25,0,0,14.302995022203795,0.0,1.0
1624704879.71875,0,0,0.0,0.0,1.0
1624704880.1875,0,0,8.810419449454262,0.0,1.0
1624704880.65625,0,0,11.76802882154643,0.0,1.0
1624704881.125,0,0,7.1334708491232295,0.0,1.0
1624704881.59375,0,0,0.0,0.0,1.0
1624704882.0625,0,0,10.797177613446907,0.0,1.0
1624704882.53125,0,0,21.79688164142676,0.0,1.0
1624704883.0,0,0,0.0,0.0,1.0
1624704883.46875,0,0,18.175369341330455,0.0,1.0
1624704883.9375,0,0,20.396844481672215,0.0,1.0
1624704884.40625,0,0,83.32410945323784,0.0,1.0
1624704884.875,0,0,137.45418107014328,0.0,1.0
1624704885.34375,0,0,-32.464333143363255,0.0,1.0
1624704885.8125,0,0,91.59209849186277,0.0,1.0
1624704886.28125,0,0,-1.5555078054679794,0.0,1.0
1624704886.75,0,0,26.081635272198138,0.0,1.0
1624704887.21875,0,0,17.576205271341266,0.0,1.0
1624704887.6875,0,0,-9.792845968874603,0.0,1.0
1624704888.15625,0,0,19.88189521408973,0.0,1.0
1624704888.625,0,0,10.072929436001536,0.0,1.0
1624704889.09375,0,0,19.594243654095113,0.0,1.0
1624704889.5625,0,0,27.925097416260503,0.0,1.0
1624704890.03125,0,0,0.0,0.0,1.0
1624704890.5,0,0,0.0,0.0,1.0
1624704890.96875,0,0,0.0,0.0,1.0
1624704891.4375,0,0,-2.5012002211638915,0.0,1.0
1624704891.90625,0,0,28.25779666816133,0.0,1.0
1624704892.375,0,0,0.0,0.0,1.0
1624704892.84375,0,0,29.267566881171913,0.0,1.0
1624704893.3125,0,0,0.0,0.0,1.0
1624704893.78125,0,0,0.0,0.0,1.0
1624704894.25,0,0,-7.804623985970571,0.0,1.0
1624704894.71875,0,0,63.51568660414102,0.0,1.0
1624704895.1875,0,0,2.8415420437978147,0.0,1.0
1624704895.65625,0,0,0.0,0.0,1.0
1624704896.125,0,0,26.975016302794106,0.0,1.0
1624704896.59375,0,0,37.76745024061535,0.0,1.0
1624704897.0625,0,0,39.999248000511905,0.0,1.0
1624704897.53125,0,0,0.0,0.0,1.0
1624704898.0,0,0,16.187150723032477,0.0,1.0
1624704898.46875,0,0,13.63460408399496,0.0,1.0
1624704898.9375,0,0,20.345215350504837,0.0,1.0
1624704899.40625,0,0,26.25760597836646,0.0,1.0
1624704899.875,0,0,0.0,0.0,1.0
1624704900.34375,0,0,20.72105304595318,0.0,1.0
1624704900.8125,0,0,0.0,0.0,1.0
1624704901.28125,0,0,33.84210728498234,0.0,1.0
1624704901.75,0,0,0.0,0.0,1.0
1624704902.21875,0,0,0.0,0.0,1.0
1624704902.6875,0,0,194.36637134275767,0.0,1.0
1624704903.15625,0,0,91.35855976202222,0.0,1.0
1624704903.625,0,0,44.63605120424883,0.0,1.0
1624704904.09375,0,0,0.0,0.0,1.0
1624704904.5625,0,0,18.220570949895205,0.0,1.0
1624704905.03125,0,0,0.0,0.0,1.0
1624704905.5,0,0,15.062962668344149,0.0,1.0
1624704905.96875,0,0,0.0,0.0,1.0
1624704906.4375,0,0,16.356263900694024,0.0,1.0
1624704906.90625,0,0,0.0,0.0,1.0
1624704907.375,0,0,0.0,0.0,1.0
1624704907.84375,0,0,25.1081723062722,0.0,1.0
1624704908.3125,0,0,0.0,0.0,1.0
1624704908.78125,0,0,11.737328419680539,0.0,1.0
1624704909.25,0,0,0.0,0.0,1.0
1624704909.71875,0,0,16.702868232120398,0.0,1.0
1624704910.1875,0,0,0.0,0.0,1.0
1624704910.65625,0,0,15.015336306485448,0.0,1.0
1624704911.125,0,0,5.795161725476725,0.0,1.0
1624704911.59375,0,0,13.955540617937972,0.0,1.0
1624704912.0625,0,0,37.050266165068514,0.0,1.0
1624704912.53125,0,0,0.0,0.0,1.0
1624704913.0,0,0,15.239063745593752,0.0,1.0
1624704913.46875,0,0,9.02589865667347,0.0,1.0
1624704913.9375,0,0,0.0,0.0,1.0
1624704914.40625,0,0,20.0124821375498,0.0,1.0
1624704914.875,0,0,0.0,0.0,1.0
1624704915.34375,0,0,14.745980460310658,0.0,1.0
1624704915.8125,0,0,0.0,0.0,1.0
1624704916.28125,0,0,0.0,0.0,1.0
1624704916.75,0,0,25.2014523645211,0.0,1.0
1624704917.21875,0,0,0.0,0.0,1.0
1624704917.6875,0,0,17.511711600766674,0.0,1.0
1624704918.15625,0,0,18.855980209720723,0.0,1.0
1624704918.625,0,0,0.0,0.0,1.0
1624704919.09375,0,0,6.8572718392513305,0.0,1.0
1624704919.5625,0,0,65.17898960753102,0.0,1.0
1624704920.03125,0,0,0.0,0.0,1.0
1624704920.5,0,0,12.176986713891866,0.0,1.0
1624704920.96875,0,0,0.0,0.0,1.0
1624704921.4375,0,0,14.173470794572724,0.0,1.0
1624704921.90625,0,0,0.0,0.0,1.0
1624704922.375,0,0,22.535924202848634,0.0,1.0
1624704922.84375,0,0,11.919653571321202,0.0,1.0
1624704923.3125,0,0,0.0,0.0,1.0
1624704923.78125,0,0,15.805205015247093,0.0,1.0
1624704924.25,0,0,0.0,0.0,1.0
1624704924.71875,0,0,11.552549422438002,0.0,1.0
1624704925.1875,0,0,0.0,0.0,1.0
1624704925.65625,0,0,24.763848852463838,0.0,1.0
1624704926.125,0,0,14.55109683569873,0.0,1.0
1624704926.59375,0,0,0.0,0.0,1.0
1624704927.0625,0,0,11.34390136517576,0.0,1.0
1624704927.53125,0,0,12.710588902272452,0.0,1.0
1624704928.0,0,0,0.0,0.0,1.0
1624704928.46875,0,0,18.45925143344565,0.0,1.0
1624704928.9375,0,0,0.0,0.0,1.0
1624704929.40625,0,0,16.395730846506748,0.0,1.0
1624704929.875,0,0,0.0,0.0,1.0
1624704930.34375,0,0,11.442073779411468,0.0,1.0
1624704930.8125,0,0,15.764922406551367,0.0,1.0
1624704931.28125,0,0,0.0,0.0,1.0
1624704931.75,0,0,9.680359089739007,0.0,1.0
1624704932.21875,0,0,0.0,0.0,1.0
1624704932.6875,0,0,8.11164393004997,0.0,1.0
1624704933.15625,0,0,21.262130587620334,0.0,1.0
1624704933.625,0,0,0.0,0.0,1.0
1624704934.09375,0,0,46.52051943510648,0.0,1.0
1624704934.5625,0,0,0.0,0.0,1.0
1624704935.03125,0,0,185.50904467004725,0.0,1.0
1624704935.5,0,0,0.0,0.0,1.0
1624704935.96875,0,0,17.010365914900593,0.0,1.0
1624704936.4375,0,0,0.0,0.0,1.0
1624704936.90625,0,0,73.91568864628329,0.0,1.0
1624704937.375,0,0,0.0,0.0,1.0
1624704937.84375,0,0,-20.650083151714863,0.0,1.0
1624704938.3125,0,0,50.9259010911797,0.0,1.0
1624704938.78125,0,0,0.0,0.0,1.0
1624704939.25,0,0,0.7192261680345355,0.0,1.0
1624704939.71875,0,0,0.0,0.0,1.0
1624704940.1875,0,0,34.9483495081279,0.0,1.0
1624704940.65625,0,0,-28.28832878027926,0.0,1.0
1624704941.125,0,0,205.19854135469836,0.0,1.0
1624704941.59375,0,0,85.5269706612494,0.0,1.0
1624704942.0625,0,0,0.0,0.0,1.0
1624704942.53125,0,0,45.663595903841916,0.0,1.0
1624704943.0,0,0,13.265365439196186,0.0,1.0
1624704943.46875,0,0,0.0,0.0,1.0
1624704943.9375,0,0,2.3368575983670787,0.0,1.0
1624704944.40625,0,0,91.37349867772744,0.0,1.0
1624704944.875,0,0,-62.09855259713202,0.0,1.0
1624704945.34375,0,0,142.21668404924563,0.0,1.0
1624704945.8125,0,0,2.0538878911885194,0.0,1.0
1624704946.28125,0,0,5.788848864231615,0.0,1.0
1624704946.75,0,0,0.0,0.0,1.0
1624704947.21875,0,0,0.0,0.0,1.0
1624704947.6875,0,0,-4.058962033696134,0.0,1.0
1624704948.15625,0,0,109.48915369915073,0.0,1.0
1624704948.625,0,0,147.57978791962674,0.0,1.0
1624704949.09375,0,0,193.03776685753166,0.0,1.0
1624704949.5625,0,0,170.2777637120326,0.0,1.0
1624704950.03125,0,0,173.1453833202397,0.0,1.0
1624704950.5,0,0,-11.815432558382591,0.0,1.0
1624704950.96875,0,0,-23.702948449137367,0.0,1.0
1624704951.4375,0,0,32.13189824157639,0.0,1.0
1624704951.90625,0,0,0.0,0.0,1.0
1624704952.375,0,0,0.0,0.0,1.0
1624704952.84375,0,0,17.31618481635731,0.0,1.0
1624704953.3125,0,0,16.039209448638825,0.0,1.0
1624704953.78125,0,0,75.60167175290769,0.0,1.0
1624704954.25,0,0,0.0,0.0,1.0
1624704954.71875,0,0,4.173690506957824,0.0,1.0
1624704955.1875,0,0,48.81697922073849,0.0,1.0
1624704955.65625,0,0,0.0,0.0,1.0
1624704956.125,0,0,0.0,0.0,1.0
1624704956.59375,0,0,150.00100696412605,0.0,1.0
1624704957.0625,0,0,-37.918479948823865,0.0,1.0
1624704957.53125,0,0,69.67493589656365,0.0,1.0
1624704958.0,0,0,0.0,0.0,1.0
1624704958.46875,0,0,30.349572421525504,0.0,1.0
1624704958.9375,0,0,29.01906029820888,0.0,1.0
1624704959.40625,0,0,0.0,0.0,1.0
1624704959.875,0,0,197.4689399455295,0.0,1.0
1624704960.34375,0,0,0.0,0.0,1.0
1624704960.8125,0,0,366.52573175504693,0.0,1.0
1624704961.28125,0,0,0.0,0.0,1.0
1624704961.75,0,0,52.598282173355024,0.0,1.0
1624704962.21875,0,0,48.286238930696115,0.0,1.0
1624704962.6875,0,0,0.0,0.0,1.0
1624704963.15625,0,0,16.986545998333202,0.0,1.0
1624704963.625,0,0,9.748990819921598,0.0,1.0
1624704964.09375,0,0,7.908822147547051,0.0,1.0
1624704964.5625,0,0,62.44272102977966,0.0,1.0
1624704965.03125,0,0,-4.224722765856702,0.0,1.0
1624704965.5,0,0,21.96408656230566,0.0,1.0
1624704965.96875,0,0,34.787006035917024,0.0,1.0
1624704966.4375,0,0,33.79933215395501,0.0,1.0
1624704966.90625,0,0,5.22050115283569,0.0,1.0
1624704967.375,0,0,8.879761860090333,0.0,1.0
1624704967.84375,0,0,25.12844478223239,0.0,1.0
1624704968.3125,0,0,-3.3860480981414276,0.0,1.0
1624704968.78125,0,0,39.54195364636298,0.0,1.0
1624704969.25,0,0,18.019817201098654,0.0,1.0
1624704969.71875,0,0,0.0,0.0,1.0
1624704970.1875,0,0,67.53917877855817,0.0,1.0
1624704970.65625,0,0,0.0,0.0,1.0
1624704971.125,0,0,10.605631009863723,0.0,1.0
1624704971.59375,0,0,21.382615660810234,0.0,1.0
1624704972.0625,0,0,0.0,0.0,1.0
1624704972.53125,0,0,99.22671011797021,0.0,1.0
1624704973.0,0,0,6.063180989067133,0.0,1.0
1624704973.46875,0,0,1.4197300394198948,0.0,1.0
1624704973.9375,0,0,9.957372802414657,0.0,1.0
1624704974.40625,0,0,-17.166743607558924,0.0,1.0
1624704974.875,0,0,27.142734997556868,0.0,1.0
1624704975.34375,0,0,0.0,0.0,1.0
1624704975.8125,0,0,20.269418404823888,0.0,1.0
1624704976.28125,0,0,0.0,0.0,1.0
1624704976.75,0,0,61.79932092077507,0.0,1.0
1624704977.21875,0,0,12.342565406780123,0.0,1.0
1624704977.6875,0,0,9.264854823009047,0.0,1.0
1624704978.15625,0,0,16.742581593487483,0.0,1.0
1624704978.625,0,0,61.29811309580981,0.0,1.0
1624704979.09375,0,0,13.66319994154041,0.0,1.0
1624704979.5625,0,0,25.26628830453003,0.0,1.0
1624704980.03125,0,0,0.0,0.0,1.0
1624704980.5,0,0,64.41102651998227,0.0,1.0
1624704980.96875,0,0,-54.05936763075402,0.0,1.0
1624704981.4375,0,0,37.73514845060681,0.0,1.0
1624704981.90625,0,0,5.968571846868219,0.0,1.0
1624704982.375,0,0,71.39046994273818,0.0,1.0
1624704982.84375,0,0,151.8994246108886,0.0,1.0
1624704983.3125,0,0,-13.970956101252115,0.0,1.0
1624704983.78125,0,0,124.71731347337622,0.0,1.0
1624704984.25,0,0,36.076739576354306,0.0,1.0
1624704984.71875,0,0,0.0,0.0,1.0
1624704985.1875,0,0,14.64355163393026,0.0,1.0
1624704985.65625,0,0,15.837722835948586,0.0,1.0
1624704986.125,0,0,14.841137240338492,0.0,1.0
1624704986.59375,0,0,37.73571931705475,0.0,1.0
1624704987.0625,0,0,0.0,0.0,1.0
1624704987.53125,0,0,10.712609521205191,0.0,1.0
1624704988.0,0,0,22.88783970106886,0.0,1.0
1624704988.46875,0,0,0.0,0.0,1.0
1624704988.9375,0,0,24.778740258392375,0.0,1.0
1624704989.40625,0,0,128.07209275924484,0.0,1.0
1624704989.875,0,0,12.77383409981061,0.0,1.0
1624704990.34375,0,0,8.851600348297493,0.0,1.0
1624704990.8125,0,0,0.0,0.0,1.0
1624704991.28125,0,0,27.046316339827364,0.0,1.0
1624704991.75,0,0,10.316259246832288,0.0,1.0
1624704992.21875,0,0,0.0,0.0,1.0
1624704992.6875,0,0,15.99636323851589,0.0,1.0
1624704993.15625,0,0,0.0,0.0,1.0
1624704993.625,0,0,19.454835908383394,0.0,1.0
1624704994.09375,0,0,0.0,0.0,1.0
1624704994.5625,0,0,12.138408140462356,0.0,1.0
1624704995.03125,0,0,29.696621415830062,0.0,1.0
1624704995.5,0,0,0.0,0.0,1.0
1624704995.96875,0,0,7.901610122805234,0.0,1.0
1624704996.4375,0,0,38.1080343191167,0.0,1.0
1624704996.90625,0,0,0.0,0.0,1.0
1624704997.375,0,0,87.58585519736877,0.0,1.0
1624704997.84375,0,0,0.0,0.0,1.0
1624704998.3125,0,0,0.0,0.0,1.0
1624704998.78125,0,0,31.40348780671837,0.0,1.0
1624704999.25,0,0,16.702994425972243,0.0,1.0
1624704999.71875,0,0,0.0,0.0,1.0
1624705000.1875,0,0,13.994546245850584,0.0,1.0
1624705000.65625,0,0,0.0,0.0,1.0
1624705001.125,0,0,74.40630291023629,0.0,1.0
1624705001.59375,0,0,0.0,0.0,1.0
1624705002.0625,0,0,0.0,0.0,1.0
1624705002.53125,0,0,18.071588008877445,0.0,1.0
1624705003.0,0,0,7.041631053496722,0.0,1.0
1624705003.46875,0,0,0.0,0.0,1.0
1624705003.9375,0,0,179.7013416301463,0.0,1.0
1624705004.40625,0,0,0.0,0.0,1.0
1624705004.875,0,0,24.24755301457657,0.0,1.0
1624705005.34375,0,0,26.101246521034334,0.0,1.0
1624705005.8125,0,0,0.0,0.0,1.0
1624705006.28125,0,0,-1.3477541122817494,0.0,1.0
1624705006.75,0,0,105.3456557563863,0.0,1.0
1624705007.21875,0,0,0.0,0.0,1.0
1624705007.6875,0,0,14.424885257959318,0.0,1.0
1624705008.15625,0,0,0.0,0.0,1.0
1624705008.625,0,0,141.14281712432535,0.0,1.0
1624705009.09375,0,0,84.35426245142007,0.0,1.0
1624705009.5625,0,0,127.67762268598482,0.0,1.0
1624705010.03125,0,0,-11.040375684987708,0.0,1.0
1624705010.5,0,0,88.17570161967832,0.0,1.0
1624705010.96875,0,0,151.48394450424001,0.0,1.0
1624705011.4375,0,0,0.0,0.0,1.0
1624705011.90625,0,0,7.7483933201995,0.0,1.0
1624705012.375,0,0,29.180808847645817,0.0,1.0
1624705012.84375,0,0,0.0,0.0,1.0
1624705013.3125,0,0,6.707714141904461,0.0,1.0
1624705013.78125,0,0,27.118809472264545,0.0,1.0
1624705014.25,0,0,0.0,0.0,1.0
1624705014.71875,0,0,13.891882259134578,0.0,1.0
1624705015.1875,0,0,0.0,0.0,1.0
1624705015.65625,0,0,34.889522616159034,0.0,1.0
1624705016.125,0,0,9.13274357297174,0.0,1.0
1624705016.59375,0,0,0.0,0.0,1.0
1624705017.0625,0,0,19.626709953363637,0.0,1.0
1624705017.53125,0,0,0.0,0.0,1.0
1624705018.0,0,0,50.50467349688899,0.0,1.0
1624705018.46875,0,0,51.90170678174752,0.0,1.0
1624705018.9375,0,0,-48.50550554410866,0.0,1.0
1624705019.40625,0,0,0.0,0.0,1.0
1624705019.875,0,0,432.4479350681503,0.0,1.0
1624705020.34375,0,0,122.43415395701842,0.0,1.0
1624705020.8125,0,0,92.29382720087737,0.0,1.0
1624705021.28125,0,0,0.0,0.0,1.0
1624705021.75,0,0,42.72307943493782,0.0,1.0
1624705022.21875,0,0,7.528396652288672,0.0,1.0
1624705022.6875,0,0,35.890169563000136,0.0,1.0
1624705023.15625,0,0,57.26360401599915,0.0,1.0
1624705023.625,0,0,0.0,0.0,1.0
1624705024.09375,0,0,0.0,0.0,1.0
1624705024.5625,0,0,21.556141994104014,0.0,1.0
1624705025.03125,0,0,22.124679937032482,0.0,1.0
1624705025.5,0,0,0.0,0.0,1.0
1624705025.96875,0,0,17.87132194794225,0.0,1.0
1624705026.4375,0,0,17.249240391830046,0.0,1.0
1624705026.90625,0,0,0.0,0.0,1.0
1624705027.375,0,0,17.094808979617476,0.0,1.0
1624705027.84375,0,0,20.145726443873183,0.0,1.0
1624705028.3125,0,0,19.24283699544208,0.0,1.0
1624705028.78125,0,0,0.0,0.0,1.0
1624705029.25,0,0,28.413900380142767,0.0,1.0
1624705029.71875,0,0,15.891968423928786,0.0,1.0
1624705030.1875,0,0,0.0,0.0,1.0
1624705030.65625,0,0,12.220054784712007,0.0,1.0
1624705031.125,0,0,9.459000830137258,0.0,1.0
1624705031.59375,0,0,0.0,0.0,1.0
1624705032.0625,0,0,61.03944912946666,0.0,1.0
1624705032.53125,0,0,0.0,0.0,1.0
1624705033.0,0,0,45.645627214066714,0.0,1.0
1624705033.46875,0,0,0.0,0.0,1.0
1624705033.9375,0,0,12.494168571367334,0.0,1.0
1624705034.40625,0,0,19.682638759656978,0.0,1.0
1624705034.875,0,0,0.0,0.0,1.0
1624705035.34375,0,0,25.686828283189026,0.0,1.0
1624705035.8125,0,0,0.0,0.0,1.0
1624705036.28125,0,0,41.80882578303607,0.0,1.0
1624705036.75,0,0,39.7289261609565,0.0,1.0
1624705037.21875,0,0,0.0,0.0,1.0
1624705037.6875,0,0,25.392615934349497,0.0,1.0
1624705038.15625,0,0,26.955290250268664,0.0,1.0
1624705038.625,0,0,0.0,0.0,1.0
1624705039.09375,0,0,26.6496062179735,0.0,1.0
1624705039.5625,0,0,0.0,0.0,1.0
1624705040.03125,0,0,21.349179938687982,0.0,1.0
1624705040.5,0,0,0.0,0.0,1.0
1624705040.96875,0,0,10.19648230707229,0.0,1.0
1624705041.4375,0,0,36.794331444960115,0.0,1.0
1624705041.90625,0,0,0.0,0.0,1.0
1624705042.375,0,0,41.162570062623786,0.0,1.0
1624705042.84375,0,0,14.713654328897707,0.0,1.0
1624705043.3125,0,0,0.0,0.0,1.0
1624705043.78125,0,0,26.130096558696327,0.0,1.0
1624705044.25,0,0,0.0,0.0,1.0
1624705044.71875,0,0,19.359798484342242,0.0,1.0
1624705045.1875,0,0,14.169710071456016,0.0,1.0
1624705045.65625,0,0,17.656523921242655,0.0,1.0
1624705046.125,0,0,0.0,0.0,1.0
1624705046.59375,0,0,0.0,0.0,1.0
1624705047.0625,0,0,0.0,0.0,1.0
1624705047.53125,0,0,18.970844667322222,0.0,1.0
1624705048.0,0,0,18.57072587264888,0.0,1.0
1624705048.46875,0,0,0.0,0.0,1.0
1624705048.9375,0,0,32.85496745148926,0.0,1.0
1624705049.40625,0,0,141.25852352483327,0.0,1.0
1624705049.875,0,0,29.981748157753213,0.0,1.0
1624705050.34375,0,0,138.97074616072817,0.0,1.0
1624705050.8125,0,0,0.0,0.0,1.0
1624705051.28125,0,0,0.9051870200498348,0.0,1.0
1624705051.75,0,0,33.65011145175205,0.0,1.0
1624705052.21875,0,0,18.29613717634835,0.0,1.0
1624705052.6875,0,0,13.998494784218089,0.0,1.0
1624705053.15625,0,0,0.0,0.0,1.0
1624705053.625,0,0,25.448383595037317,0.0,1.0
1624705054.09375,0,0,0.0,0.0,1.0
1624705054.5625,0,0,10.37588125168699,0.0,1.0
1624705055.03125,0,0,0.0,0.0,1.0
1624705055.5,0,0,0.0,0.0,1.0
1624705055.96875,0,0,11.930599124561962,0.0,1.0
1624705056.4375,0,0,0.0,0.0,1.0
1624705056.90625,0,0,14.610867071869723,0.0,1.0
1624705057.375,0,0,2.748749482352327,0.0,1.0
1624705057.84375,0,0,20.5308663084206,0.0,1.0
1624705058.3125,0,0,13.534691142341636,0.0,1.0
1624705058.78125,0,0,0.0,0.0,1.0
1624705059.25,0,0,11.160743390588493,0.0,1.0
1624705059.71875,0,0,12.806623047161548,0.0,1.0
1624705060.1875,0,0,9.946465400859351,0.0,1.0
1624705060.65625,0,0,15.482691254388106,0.0,1.0
1624705061.125,0,0,0.0,0.0,1.0
1624705061.59375,0,0,23.16529077055183,0.0,1.0
1624705062.0625,0,0,0.0,0.0,1.0
1624705062.53125,0,0,-11.819593845642663,0.0,1.0
1624705063.0,0,0,163.18900739664673,0.0,1.0
1624705063.46875,0,0,0.0,0.0,1.0
1624705063.9375,0,0,-51.95581077391465,0.0,1.0
1624705064.40625,0,0,112.66781481856947,0.0,1.0
1624705064.875,0,0,0.0,0.0,1.0
1624705065.34375,0,0,4.044540539602575,0.0,1.0
1624705065.8125,0,0,-3.3988762443165497,0.0,1.0
1624705066.28125,0,0,21.813786556993318,0.0,1.0
1624705066.75,0,0,14.399821411103073,0.0,1.0
1624705067.21875,0,0,14.976739661075024,0.0,1.0
1624705067.6875,0,0,39.34088130379321,0.0,1.0
1624705068.15625,0,0,0.0,0.0,1.0
1624705068.625,0,0,206.4278374911934,0.0,1.0
1624705069.09375,0,0,0.0,0.0,1.0
1624705069.5625,0,0,17.305306545414858,0.0,1.0
1624705070.03125,0,0,34.53131345285356,0.0,1.0
1624705070.5,0,0,0.0,0.0,1.0
1624705070.96875,0,0,4.941198691704775,0.0,1.0
1624705071.4375,0,0,26.94853279570991,0.0,1.0
1624705071.90625,0,0,0.0,0.0,1.0
1624705072.375,0,0,20.222078102670263,0.0,1.0
1624705072.84375,0,0,0.0,0.0,1.0
1624705073.3125,0,0,20.586644542339474,0.0,1.0
1624705073.78125,0,0,25.18433175676088,0.0,1.0
1624705074.25,0,0,0.0,0.0,1.0
1624705074.71875,0,0,0.0,0.0,1.0
1624705075.1875,0,0,32.301320333865355,0.0,1.0
1624705075.65625,0,0,22.265188618296865,0.0,1.0
1624705076.125,0,0,0.0,0.0,1.0
1624705076.59375,0,0,57.41927311129931,0.0,1.0
1624705077.0625,0,0,63.74823615336233,0.0,1.0
1624705077.53125,0,0,0.0,0.0,1.0
1624705078.0,0,0,0.0,0.0,1.0
1624705078.46875,0,0,491.31191601080707,0.0,1.0
1624705078.9375,0,0,0.0,0.0,1.0
1624705079.40625,0,0,204.7863478892478,0.0,1.0
1624705079.875,0,0,71.5836287388519,0.0,1.0
1624705080.34375,0,0,81.64689074154671,0.0,1.0
1624705080.8125,0,0,0.0,0.0,1.0
1624705081.28125,0,0,14.794620818030092,0.0,1.0
1624705081.75,0,0,0.0,0.0,1.0
1624705082.21875,0,0,6.547213788693611,0.0,1.0
1624705082.6875,0,0,0.0,0.0,1.0
1624705083.15625,0,0,69.84286337319021,0.0,1.0
1624705083.625,0,0,42.69494397897176,0.0,1.0
1624705084.09375,0,0,24.803756487877646,0.0,1.0
1624705084.5625,0,0,50.131521683244706,0.0,1.0
1624705085.03125,0,0,-11.384727327317854,0.0,1.0
1624705085.5,0,0,0.0,0.0,1.0
1624705085.96875,0,0,14.922409153220913,0.0,1.0
1624705086.4375,0,0,66.08891709595194,0.0,1.0
1624705086.90625,0,0,22.791358023136322,0.0,1.0
1624705087.375,0,0,0.0,0.0,1.0
1624705087.84375,0,0,19.251810669439475,0.0,1.0
1624705088.3125,0,0,152.92014194662494,0.0,1.0
1624705088.78125,0,0,-3.817007857630277,0.0,1.0
1624705089.25,0,0,21.186990576244494,0.0,1.0
1624705089.71875,0,0,0.0,0.0,1.0
1624705090.1875,0,0,26.096389724528905,0.0,1.0
1624705090.65625,0,0,15.78441613885388,0.0,1.0
1624705091.125,0,0,127.99469599616194,0.0,1.0
1624705091.59375,0,0,-43.87950831677225,0.0,1.0
1624705092.0625,0,0,42.8960816749048,0.0,1.0
1624705092.53125,0,0,77.97739359705734,0.0,1.0
1624705093.0,0,0,31.636251058312666,0.0,1.0
1624705093.46875,0,0,54.41051342625379,0.0,1.0
1624705093.9375,0,0,18.403196290774616,0.0,1.0
1624705094.40625,0,0,0.0,0.0,1.0
1624705094.875,0,0,25.93533186089373,0.0,1.0
1624705095.34375,0,0,133.06736682355563,0.0,1.0
1624705095.8125,0,0,355.0910758847285,0.0,1.0
1624705096.28125,0,0,267.2040646428375,0.0,1.0
1624705096.75,0,0,0.0,0.0,1.0
1624705097.21875,0,0,0.766386559224814,0.0,1.0
1624705097.6875,0,0,28.668524365843595,0.0,1.0
1624705098.15625,0,0,21.35378581409145,0.0,1.0
1624705098.625,0,0,0.0,0.0,1.0
1624705099.09375,0,0,24.237980409315085,0.0,1.0
1624705099.5625,0,0,36.02180200331261,0.0,1.0
1624705100.03125,0,0,0.0,0.0,1.0
1624705100.5,0,0,40.71564352247638,0.0,1.0
1624705100.96875,0,0,110.5581143615821,0.0,1.0
1624705101.4375,0,0,0.0,0.0,1.0
1624705101.90625,0,0,0.0,0.0,1.0
1624705102.375,0,0,22.101026190918066,0.0,1.0
1624705102.84375,0,0,14.106909418841367,0.0,1.0
1624705103.3125,0,0,0.0,0.0,1.0
1624705103.78125,0,0,25.966486095479862,0.0,1.0
1624705104.25,0,0,27.2433521277233,0.0,1.0
1624705104.71875,0,0,0.0,0.0,1.0
1624705105.1875,0,0,189.47163363476238,0.0,1.0
1624705105.65625,0,0,0.0,0.0,1.0
1624705106.125,0,0,-5.97270065563211,0.0,1.0
1624705106.59375,0,0,-15.127878009332544,0.0,1.0
1624705107.0625,0,0,213.57054689031494,0.0,1.0
1624705107.53125,0,0,-16.278947459331096,0.0,1.0
1624705108.0,0,0,37.78122244210808,0.0,1.0
1624705108.46875,0,0,0.0,0.0,1.0
1624705108.9375,0,0,208.3892083896041,0.0,1.0
1624705109.40625,0,0,-17.213130017391574,0.0,1.0
1624705109.875,0,0,-33.334816061412944,0.0,1.0
1624705110.34375,0,0,23.55962611552301,0.0,1.0
1624705110.8125,0,0,0.0,0.0,1.0
1624705111.28125,0,0,22.496157626114325,0.0,1.0
1624705111.75,0,0,24.061087280971538,0.0,1.0
1624705112.21875,0,0,0.0,0.0,1.0
1624705112.6875,0,0,22.204939682011698,0.0,1.0
1624705113.15625,0,0,89.12094104420778,0.0,1.0
1624705113.625,0,0,0.0,0.0,1.0
1624705114.09375,0,0,73.50953830765418,0.0,1.0
1624705114.5625,0,0,-9.25030330591464,0.0,1.0
1624705115.03125,0,0,29.92773794312494,0.0,1.0
1624705115.5,0,0,0.0,0.0,1.0
1624705115.96875,0,0,0.0,0.0,1.0
1624705116.4375,0,0,12.482582923040441,0.0,1.0
1624705116.90625,0,0,0.0,0.0,1.0
1624705117.375,0,0,19.255205681060705,0.0,1.0
1624705117.84375,0,0,20.833038118034203,0.0,1.0
1624705118.3125,0,0,0.0,0.0,1.0
1624705118.78125,0,0,65.56074897479768,0.0,1.0
1624705119.25,0,0,0.0,0.0,1.0
1624705119.71875,0,0,19.164218268362447,0.0,1.0
1624705120.1875,0,0,-19.687645750935047,0.0,1.0
1624705120.65625,0,0,28.518285497826092,0.0,1.0
1624705121.125,0,0,0.0,0.0,1.0
1624705121.59375,0,0,17.059655734465938,0.0,1.0
1624705122.0625,0,0,0.0,0.0,1.0
1624705122.53125,0,0,12.788142636908221,0.0,1.0
1624705123.0,0,0,12.636620837725587,0.0,1.0
1624705123.46875,0,0,0.0,0.0,1.0
1624705123.9375,0,0,16.839390068383825,0.0,1.0
1624705124.40625,0,0,3.545268632619473,0.0,1.0
1624705124.875,0,0,8.549215625854199,0.0,1.0
1624705125.34375,0,0,31.99468752034883,0.0,1.0
1624705125.8125,0,0,0.0,0.0,1.0
1624705126.28125,0,0,0.0,0.0,1.0
1624705126.75,0,0,75.94315197534272,0.0,1.0
1624705127.21875,0,0,0.0,0.0,1.0
1624705127.6875,0,0,162.66574669657737,0.0,1.0
1624705128.15625,0,0,0.0,0.0,1.0
1624705128.625,0,0,173.54567083117723,0.0,1.0
1624705129.09375,0,0,24.27111955262825,0.0,1.0
1624705129.5625,0,0,81.5721879195388,0.0,1.0
1624705130.03125,0,0,60.41393477456482,0.0,1.0
1624705130.5,0,0,0.8144476082241903,0.0,1.0
1624705130.96875,0,0,-10.098400870621244,0.0,1.0
1624705131.4375,0,0,19.837878182848627,0.0,1.0
1624705131.90625,0,0,19.666201765149385,0.0,1.0
1624705132.375,0,0,13.501813518628051,0.0,1.0
1624705132.84375,0,0,0.0,0.0,1.0
1624705133.3125,0,0,16.41675454775232,0.0,1.0
1624705133.78125,0,0,0.0,0.0,1.0
1624705134.25,0,0,18.901857618756452,0.0,1.0
1624705134.71875,0,0,9.346428687721314,0.0,1.0
1624705135.1875,0,0,7.801416829651456,0.0,1.0
1624705135.65625,0,0,25.524070605253943,0.0,1.0
1624705136.125,0,0,125.0361694265217,0.0,1.0
1624705136.59375,0,0,13.728531010513,0.0,1.0
1624705137.0625,0,0,0.0,0.0,1.0
1624705137.53125,0,0,211.25739251366338,0.0,1.0
1624705138.0,0,0,-98.11441855772988,0.0,1.0
1624705138.46875,0,0,75.43686557230302,0.0,1.0
1624705138.9375,0,0,43.799619082248626,0.0,1.0
1624705139.40625,0,0,52.69666258601005,0.0,1.0
1624705139.875,0,0,42.371051145356255,0.0,1.0
1624705140.34375,0,0,9.787940010376198,0.0,1.0
1624705140.8125,0,0,-14.627150914120584,0.0,1.0
1624705141.28125,0,0,28.589526806275735,0.0,1.0
1624705141.75,0,0,0.0,0.0,1.0
1624705142.21875,0,0,38.32826946734405,0.0,1.0
1624705142.6875,0,0,18.330665422452995,0.0,1.0
1624705143.15625,0,0,18.3476570280482,0.0,1.0
1624705143.625,0,0,13.564089982335299,0.0,1.0
1624705144.09375,0,0,10.185300564622327,0.0,1.0
1624705144.5625,0,0,14.799075936593411,0.0,1.0
1624705145.03125,0,0,0.0,0.0,1.0
1624705145.5,0,0,0.0,0.0,1.0
1624705145.96875,0,0,80.33852040160535,0.0,1.0
1624705146.4375,0,0,-2.643608114993719,0.0,1.0
1624705146.90625,0,0,0.0,0.0,1.0
1624705147.375,0,0,33.60178185793183,0.0,1.0
1624705147.84375,0,0,110.84156253198803,0.0,1.0
1624705148.3125,0,0,0.0,0.0,1.0
1624705148.78125,0,0,64.98579594799847,0.0,1.0
1624705149.25,0,0,0.0,0.0,1.0
1624705149.71875,0,0,34.23888418980866,0.0,1.0
1624705150.1875,0,0,0.0,0.0,1.0
1624705150.65625,0,0,34.65623038924448,0.0,1.0
1624705151.125,0,0,0.0,0.0,1.0
1624705151.59375,0,0,19.34389125473575,0.0,1.0
1624705152.0625,0,0,0.0,0.0,1.0
1624705152.53125,0,0,34.109207665958294,0.0,1.0
1624705153.0,0,0,20.005941069887204,0.0,1.0
1624705153.46875,0,0,0.0,0.0,1.0
1624705153.9375,0,0,24.671594416135612,0.0,1.0
1624705154.40625,0,0,0.0,0.0,1.0
1624705154.875,0,0,18.63957385210297,0.0,1.0
1624705155.34375,0,0,7.562915492403989,0.0,1.0
1624705155.8125,0,0,32.36332882331846,0.0,1.0
1624705156.28125,0,0,9.991106091744303,0.0,1.0
1624705156.75,0,0,0.0,0.0,1.0
1624705157.21875,0,0,18.243384869638774,0.0,1.0
1624705157.6875,0,0,0.0,0.0,1.0
1624705158.15625,0,0,27.56383714665857,0.0,1.0
1624705158.625,0,0,0.0,0.0,1.0
1624705159.09375,0,0,40.2835362094094,0.0,1.0
1624705159.5625,0,0,36.432775917431336,0.0,1.0
1624705160.03125,0,0,0.0,0.0,1.0
1624705160.5,0,0,12.34579795671041,0.0,1.0
1624705160.96875,0,0,17.11625675899079,0.0,1.0
1624705161.4375,0,0,31.770108645403944,0.0,1.0
1624705161.90625,0,0,0.0,0.0,1.0
1624705162.375,0,0,9.101419337249574,0.0,1.0
1624705162.84375,0,0,35.76152532872207,0.0,1.0
1624705163.3125,0,0,0.0,0.0,1.0
1624705163.78125,0,0,35.08940206227221,0.0,1.0
1624705164.25,0,0,0.0,0.0,1.0
1624705164.71875,0,0,29.747562183012974,0.0,1.0
1624705165.1875,0,0,79.35703214763299,0.0,1.0
1624705165.65625,0,0,-16.95476182832547,0.0,1.0
1624705166.125,0,0,59.518375161149244,0.0,1.0
1624705166.59375,0,0,0.0,0.0,1.0
1624705167.0625,0,0,27.452168287400955,0.0,1.0
1624705167.53125,0,0,61.412866515477454,0.0,1.0
1624705168.0,0,0,0.0,0.0,1.0
1624705168.46875,0,0,28.764527514414773,0.0,1.0
1624705168.9375,0,0,38.62694502128985,0.0,1.0
1624705169.40625,0,0,0.0,0.0,1.0
1624705169.875,0,0,79.64521585863915,0.0,1.0
1624705170.34375,0,0,11.671101511956206,0.0,1.0
1624705170.8125,0,0,0.0,0.0,1.0
1624705171.28125,0,0,2.932859206841263,0.0,1.0
1624705171.75,0,0,56.762783847775985,0.0,1.0
1624705172.21875,0,0,0.7915442632290773,0.0,1.0
1624705172.6875,0,0,0.0,0.0,1.0
1624705173.15625,0,0,0.0,0.0,1.0
1624705173.625,0,0,26.5467260779649,0.0,1.0
1624705174.09375,0,0,18.421276943454586,0.0,1.0
1624705174.5625,0,0,108.89438090997899,0.0,1.0
1624705175.03125,0,0,0.0,0.0,1.0
1624705175.5,0,0,16.007087201280314,0.0,1.0
1624705175.96875,0,0,28.218609614395266,0.0,1.0
1624705176.4375,0,0,0.0,0.0,1.0
1624705176.90625,0,0,41.75466358764736,0.0,1.0
1624705177.375,0,0,0.0,0.0,1.0
1624705177.84375,0,0,14.707434122947955,0.0,1.0
1624705178.3125,0,0,26.558371373519556,0.0,1.0
1624705178.78125,0,0,0.0,0.0,1.0
1624705179.25,0,0,19.02928139258995,0.0,1.0
1624705179.71875,0,0,0.0,0.0,1.0
1624705180.1875,0,0,24.426756710484316,0.0,1.0
1624705180.65625,0,0,10.531868224576018,0.0,1.0
1624705181.125,0,0,0.0,0.0,1.0
1624705181.59375,0,0,21.292551917420962,0.0,1.0
1624705182.0625,0,0,100.00216540096537,0.0,1.0
1624705182.53125,0,0,0.0,0.0,1.0
1624705183.0,0,0,43.8364943698514,0.0,1.0
1624705183.46875,0,0,28.121758722333816,0.0,1.0
1624705183.9375,0,0,13.381866928047321,0.0,1.0
1624705184.40625,0,0,12.09458107692225,0.0,1.0
1624705184.875,0,0,39.81511856716614,0.0,1.0
1624705185.34375,0,0,0.0,0.0,1.0
1624705185.8125,0,0,212.82024891936203,0.0,1.0
1624705186.28125,0,0,92.7121522508062,0.0,1.0
1624705186.75,0,0,82.25940278352499,0.0,1.0
1624705187.21875,0,0,0.0,0.0,1.0
1624705187.6875,0,0,0.0,0.0,1.0
1624705188.15625,0,0,85.19527412104536,0.0,1.0
1624705188.625,0,0,-2.9694692231842366,0.0,1.0
1624705189.09375,0,0,-4.88679207438487,0.0,1.0
1624705189.5625,0,0,27.196423133718206,0.0,1.0
1624705190.03125,0,0,0.0,0.0,1.0
1624705190.5,0,0,10.1928909175977,0.0,1.0
1624705190.96875,0,0,0.0,0.0,1.0
1624705191.4375,0,0,198.15656111000322,0.0,1.0
1624705191.90625,0,0,2.7221473099758082,0.0,1.0
1624705192.375,0,0,5.311615792939595,0.0,1.0
1624705192.84375,0,0,0.0,0.0,1.0
1624705193.3125,0,0,104.78239065839658,0.0,1.0
1624705193.78125,0,0,106.20442122948886,0.0,1.0
1624705194.25,0,0,40.93519655676593,0.0,1.0
1624705194.71875,0,0,142.4551524795867,0.0,1.0
1624705195.1875,0,0,-74.7399406380051,0.0,1.0
1624705195.65625,0,0,149.89598603769858,0.0,1.0
1624705196.125,0,0,-63.78808612521589,0.0,1.0
1624705196.59375,0,0,71.87033106462776,0.0,1.0
1624705197.0625,0,0,85.32552440979991,0.0,1.0
1624705197.53125,0,0,0.0,0.0,1.0
1624705198.0,0,0,2.7866942780253585,0.0,1.0
1624705198.46875,0,0,49.39380098182503,0.0,1.0
1624705198.9375,0,0,0.0,0.0,1.0
1624705199.40625,0,0,19.9242665409093,0.0,1.0
1624705199.875,0,0,0.0,0.0,1.0
1624705200.34375,0,0,35.496563645872044,0.0,1.0
1624705200.8125,0,0,0.0,0.0,1.0
1624705201.28125,0,0,0.0,0.0,1.0
1624705201.75,0,0,29.165827778571014,0.0,1.0
1624705202.21875,0,0,0.0,0.0,1.0
1624705202.6875,0,0,32.994126999595174,0.0,1.0
1624705203.15625,0,0,0.0,0.0,1.0
1624705203.625,0,0,33.86189569740131,0.0,1.0
1624705204.09375,0,0,0.0,0.0,1.0
1624705204.5625,0,0,32.90399232589056,0.0,1.0
1624705205.03125,0,0,24.218026237608782,0.0,1.0
1624705205.5,0,0,17.51948161052765,0.0,1.0
1624705205.96875,0,0,42.0368360329582,0.0,1.0
1624705206.4375,0,0,0.0,0.0,1.0
1624705206.90625,0,0,18.89741442126216,0.0,1.0
1624705207.375,0,0,27.202789478651564,0.0,1.0
1624705207.84375,0,0,0.0,0.0,1.0
1624705208.3125,0,0,24.86052594718418,0.0,1.0
1624705208.78125,0,0,0.0,0.0,1.0
1624705209.25,0,0,17.08131456449456,0.0,1.0
1624705209.71875,0,0,0.0,0.0,1.0
1624705210.1875,0,0,0.0,0.0,1.0
1624705210.65625,0,0,37.21226125966295,0.0,1.0
1624705211.125,0,0,11.594628830069734,0.0,1.0
1624705211.59375,0,0,4.193697351999356,0.0,1.0
1624705212.0625,0,0,32.63903512045019,0.0,1.0
1624705212.53125,0,0,0.0,0.0,1.0
1624705213.0,0,0,30.29405301252442,0.0,1.0
1624705213.46875,0,0,0.0,0.0,1.0
1624705213.9375,0,0,28.29684977347299,0.0,1.0
1624705214.40625,0,0,38.9944881425117,0.0,1.0
1624705214.875,0,0,0.0,0.0,1.0
1624705215.34375,0,0,41.19994875340424,0.0,1.0
1624705215.8125,0,0,0.0,0.0,1.0
1624705216.28125,0,0,28.118682152578007,0.0,1.0
1624705216.75,0,0,0.0,0.0,1.0
1624705217.21875,0,0,51.83885548927258,0.0,1.0
1624705217.6875,0,0,0.0,0.0,1.0
1624705218.15625,0,0,29.49739861106739,0.0,1.0
1624705218.625,0,0,30.44385319037556,0.0,1.0
1624705219.09375,0,0,0.0,0.0,1.0
1624705219.5625,0,0,48.053965906085864,0.0,1.0
1624705220.03125,0,0,0.0,0.0,1.0
1624705220.5,0,0,24.45458596233815,0.0,1.0
1624705220.96875,0,0,22.400657429867014,0.0,1.0
1624705221.4375,0,0,10.709334615395377,0.0,1.0
1624705221.90625,0,0,67.29482638169469,0.0,1.0
1624705222.375,0,0,0.0,0.0,1.0
1624705222.84375,0,0,37.654507287464625,0.0,1.0
1624705223.3125,0,0,0.0,0.0,1.0
1624705223.78125,0,0,24.268669939423514,0.0,1.0
1624705224.25,0,0,27.48625378303203,0.0,1.0
1624705224.71875,0,0,35.248521742218315,0.0,1.0
1624705225.1875,0,0,16.98400687324018,0.0,1.0
1624705225.65625,0,0,0.0,0.0,1.0
1624705226.125,0,0,27.23834884137129,0.0,1.0
1624705226.59375,0,0,0.0,0.0,1.0
1624705227.0625,0,0,37.57434991816073,0.0,1.0
1624705227.53125,0,0,12.033559693985344,0.0,1.0
1624705228.0,0,0,0.0,0.0,1.0
1624705228.46875,0,0,35.096732828325734,0.0,1.0
1624705228.9375,0,0,30.25398682466217,0.0,1.0
1624705229.40625,0,0,0.0,0.0,1.0
1624705229.875,0,0,22.44434513482046,0.0,1.0
1624705230.34375,0,0,0.0,0.0,1.0
1624705230.8125,0,0,15.267894330680864,0.0,1.0
1624705231.28125,0,0,0.0,0.0,1.0
1624705231.75,0,0,0.0,0.0,1.0
1624705232.21875,0,0,22.15744019637826,0.0,1.0
1624705232.6875,0,0,0.0,0.0,1.0
1624705233.15625,0,0,30.865984472050904,0.0,1.0
1624705233.625,0,0,0.0,0.0,1.0
1624705234.09375,0,0,12.796109530853585,0.0,1.0
1624705234.5625,0,0,0.0,0.0,1.0
1624705235.03125,0,0,31.550634077303094,0.0,1.0
1624705235.5,0,0,28.471578328164682,0.0,1.0
1624705235.96875,0,0,0.0,0.0,1.0
1624705236.4375,0,0,34.072001304965326,0.0,1.0
1624705236.90625,0,0,0.0,0.0,1.0
1624705237.375,0,0,45.125021606506465,0.0,1.0
1624705237.84375,0,0,53.139493568385916,0.0,1.0
1624705238.3125,0,0,0.0,0.0,1.0
1624705238.78125,0,0,-17.022000828750624,0.0,1.0
1624705239.25,0,0,31.428622597366424,0.0,1.0
1624705239.71875,0,0,25.442545329225148,0.0,1.0
1624705240.1875,0,0,0.0,0.0,1.0
1624705240.65625,0,0,28.22533928308382,0.0,1.0
1624705241.125,0,0,0.0,0.0,1.0
1624705241.59375,0,0,0.0,0.0,1.0
1624705242.0625,0,0,18.330936252512377,0.0,1.0
1624705242.53125,0,0,0.0,0.0,1.0
1624705243.0,0,0,35.99517384641637,0.0,1.0
1624705243.46875,0,0,19.33795731325216,0.0,1.0
1624705243.9375,0,0,0.0,0.0,1.0
1624705244.40625,0,0,-20.983122909202436,0.0,1.0
1624705244.875,0,0,104.27812035828097,0.0,1.0
1624705245.34375,0,0,-3.679057502429058,0.0,1.0
1624705245.8125,0,0,109.69655957216169,0.0,1.0
1624705246.28125,0,0,-23.821459704957757,0.0,1.0
1624705246.75,0,0,36.37322380606001,0.0,1.0
1624705247.21875,0,0,0.0,0.0,1.0
1624705247.6875,0,0,27.437438592415283,0.0,1.0
1624705248.15625,0,0,0.0,0.0,1.0
1624705248.625,0,0,34.904401954282605,0.0,1.0
1624705249.09375,0,0,26.21528508753446,0.0,1.0
1624705249.5625,0,0,0.0,0.0,1.0
1624705250.03125,0,0,20.497598997037528,0.0,1.0
1624705250.5,0,0,0.0,0.0,1.0
1624705250.96875,0,0,19.398717411851486,0.0,1.0
1624705251.4375,0,0,18.304528262676975,0.0,1.0
1624705251.90625,0,0,0.0,0.0,1.0
1624705252.375,0,0,20.75780769874546,0.0,1.0
1624705252.84375,0,0,0.0,0.0,1.0
1624705253.3125,0,0,19.633619118967736,0.0,1.0
1624705253.78125,0,0,0.0,0.0,1.0
1624705254.25,0,0,20.6065230832216,0.0,1.0
1624705254.71875,0,0,0.0,0.0,1.0
1624705255.1875,0,0,23.460456303469865,0.0,1.0
1624705255.65625,0,0,0.0,0.0,1.0
1624705256.125,0,0,42.95883150034878,0.0,1.0
1624705256.59375,0,0,0.0,0.0,1.0
1624705257.0625,0,0,42.433570132058094,0.0,1.0
1624705257.53125,0,0,25.746059014702514,0.0,1.0
1624705258.0,0,0,0.0,0.0,1.0
1624705258.46875,0,0,23.32186773138412,0.0,1.0
1624705258.9375,0,0,17.166744329919613,0.0,1.0
1624705259.40625,0,0,0.0,0.0,1.0
1624705259.875,0,0,13.569865430598485,0.0,1.0
1624705260.34375,0,0,0.0,0.0,1.0
1624705260.8125,0,0,22.54914784209055,0.0,1.0
1624705261.28125,0,0,0.0,0.0,1.0
1624705261.75,0,0,21.04566480556905,0.0,1.0
1624705262.21875,0,0,0.0,0.0,1.0
1624705262.6875,0,0,20.604881815863433,0.0,1.0
1624705263.15625,0,0,12.97598659994391,0.0,1.0
1624705263.625,0,0,0.0,0.0,1.0
1624705264.09375,0,0,36.60447763956615,0.0,1.0
1624705264.5625,0,0,0.0,0.0,1.0
1624705265.03125,0,0,-30.429678993506833,0.0,1.0
1624705265.5,0,0,246.49003403252982,0.0,1.0
1624705265.96875,0,0,0.0,0.0,1.0
1624705266.4375,0,0,-18.044715526663257,0.0,1.0
1624705266.90625,0,0,29.857021625523277,0.0,1.0
1624705267.375,0,0,0.0,0.0,1.0
1624705267.84375,0,0,28.10742670275516,0.0,1.0
1624705268.3125,0,0,0.16306931991253112,0.0,1.0
1624705268.78125,0,0,66.98709735073334,0.0,1.0
1624705269.25,0,0,154.95449565730937,0.0,1.0
1624705269.71875,0,0,-44.931756036838294,0.0,1.0
1624705270.1875,0,0,0.0,0.0,1.0
1624705270.65625,0,0,110.58583203933317,0.0,1.0
1624705271.125,0,0,0.0,0.0,1.0
1624705271.59375,0,0,0.0,0.0,1.0
1624705272.0625,0,0,21.23870942131399,0.0,1.0
1624705272.53125,0,0,34.44091349085662,0.0,1.0
1624705273.0,0,0,56.73446395910881,0.0,1.0
1624705273.46875,0,0,24.830168299802185,0.0,1.0
1624705273.9375,0,0,0.0,0.0,1.0
1624705274.40625,0,0,32.91498443080368,0.0,1.0
1624705274.875,0,0,0.0,0.0,1.0
1624705275.34375,0,0,19.016359287940922,0.0,1.0
1624705275.8125,0,0,0.0,0.0,1.0
1624705276.28125,0,0,21.791087841180946,0.0,1.0
1624705276.75,0,0,30.373486792102693,0.0,1.0
1624705277.21875,0,0,0.0,0.0,1.0
1624705277.6875,0,0,18.56836747266627,0.0,1.0
1624705278.15625,0,0,0.0,0.0,1.0
1624705278.625,0,0,0.0,0.0,1.0
1624705279.09375,0,0,20.572228549228775,0.0,1.0
1624705279.5625,0,0,0.0,0.0,1.0
1624705280.03125,0,0,37.61777306228542,0.0,1.0
1624705280.5,0,0,0.0,0.0,1.0
1624705280.96875,0,0,0.0,0.0,1.0
1624705281.4375,0,0,17.776744782245192,0.0,1.0
1624705281.90625,0,0,0.0,0.0,1.0
1624705282.375,0,0,11.915712403519912,0.0,1.0
1624705282.84375,0,0,0.0,0.0,1.0
1624705283.3125,0,0,19.86338536744028,0.0,1.0
1624705283.78125,0,0,0.0,0.0,1.0
1624705284.25,0,0,0.0,0.0,1.0
1624705284.71875,0,0,12.755954392762378,0.0,1.0
1624705285.1875,0,0,8.62416062473598,0.0,1.0
1624705285.65625,0,0,6.090918873021415,0.0,1.0
1624705286.125,0,0,0.0,0.0,1.0
1624705286.59375,0,0,0.0,0.0,1.0
1624705287.0625,0,0,16.247497417605707,0.0,1.0
1624705287.53125,0,0,16.234049495895633,0.0,1.0
1624705288.0,0,0,0.0,0.0,1.0
1624705288.46875,0,0,14.342309691057093,0.0,1.0
1624705288.9375,0,0,0.0,0.0,1.0
1624705289.40625,0,0,27.75758860360726,0.0,1.0
1624705289.875,0,0,0.0,0.0,1.0
1624705290.34375,0,0,17.333563829725705,0.0,1.0
1624705290.8125,0,0,21.455990112854913,0.0,1.0
1624705291.28125,0,0,0.0,0.0,1.0
1624705291.75,0,0,14.475285511546538,0.0,1.0
1624705292.21875,0,0,11.487442075470163,0.0,1.0
1624705292.6875,0,0,12.79101938293673,0.0,1.0
1624705293.15625,0,0,6.808989391258288,0.0,1.0
1624705293.625,0,0,19.44260227785945,0.0,1.0
1624705294.09375,0,0,0.0,0.0,1.0
1624705294.5625,0,0,19.407167721435343,0.0,1.0
1624705295.03125,0,0,-3.1152204312458185,0.0,1.0
1624705295.5,0,0,6.52351696297096,0.0,1.0
1624705295.96875,0,0,16.640536482696312,0.0,1.0
1624705296.4375,0,0,0.0,0.0,1.0
1624705296.90625,0,0,23.60404212576456,0.0,1.0
1624705297.375,0,0,-27.867665020201564,0.0,1.0
1624705297.84375,0,0,34.02386627798777,0.0,1.0
1624705298.3125,0,0,0.0,0.0,1.0
1624705298.78125,0,0,13.473589078591498,0.0,1.0
1624705299.25,0,0,40.97849435120551,0.0,1.0
1624705299.71875,0,0,0.0,0.0,1.0
1624705300.1875,0,0,32.180715237675265,0.0,1.0
1624705300.65625,0,0,24.964491169975787,0.0,1.0
1624705301.125,0,0,0.0,0.0,1.0
1624705301.59375,0,0,25.428579970992267,0.0,1.0
1624705302.0625,0,0,0.0,0.0,1.0
1624705302.53125,0,0,23.746558111571105,0.0,1.0
1624705303.0,0,0,29.677320419585797,0.0,1.0
1624705303.46875,0,0,0.0,0.0,1.0
1624705303.9375,0,0,40.44934254707716,0.0,1.0
1624705304.40625,0,0,38.987402649663835,0.0,1.0
1624705304.875,0,0,62.41869903126953,0.0,1.0
1624705305.34375,0,0,0.0,0.0,1.0
1624705305.8125,0,0,219.58930991233518,0.0,1.0
1624705306.28125,0,0,16.205720536857026,0.0,1.0
1624705306.75,0,0,262.33520969897626,0.0,1.0
1624705307.21875,0,0,66.90836918655289,0.0,1.0
1624705307.6875,0,0,-17.883635255981545,0.0,1.0
1624705308.15625,0,0,54.97188398071815,0.0,1.0
1624705308.625,0,0,0.0,0.0,1.0
1624705309.09375,0,0,2.227021102306288,0.0,1.0
1624705309.5625,0,0,27.20397347549147,0.0,1.0
1624705310.03125,0,0,0.0,0.0,1.0
1624705310.5,0,0,16.043532757417395,0.0,1.0
1624705310.96875,0,0,0.0,0.0,1.0
1624705311.4375,0,0,28.04307626604772,0.0,1.0
1624705311.90625,0,0,21.374556688857083,0.0,1.0
1624705312.375,0,0,19.021942799865702,0.0,1.0
1624705312.84375,0,0,0.0,0.0,1.0
1624705313.3125,0,0,43.11864568408733,0.0,1.0
1624705313.78125,0,0,-14.984413074010765,0.0,1.0
1624705314.25,0,0,61.49217904810118,0.0,1.0
1624705314.71875,0,0,0.0,0.0,1.0
1624705315.1875,0,0,8.08826766702389,0.0,1.0
1624705315.65625,0,0,33.06576861408471,0.0,1.0
1624705316.125,0,0,0.0,0.0,1.0
1624705316.59375,0,0,17.780678468798452,0.0,1.0
1624705317.0625,0,0,0.0,0.0,1.0
1624705317.53125,0,0,1.9806474982182118,0.0,1.0
1624705318.0,0,0,44.2116585708859,0.0,1.0
1624705318.46875,0,0,0.0,0.0,1.0
1624705318.9375,0,0,0.0,0.0,1.0
1624705319.40625,0,0,349.3935509851783,0.0,1.0
1624705319.875,0,0,178.04466188125275,0.0,1.0
1624705320.34375,0,0,0.0,0.0,1.0
1624705320.8125,0,0,38.736109037570436,0.0,1.0
1624705321.28125,0,0,30.061052177896084,0.0,1.0
1624705321.75,0,0,0.0,0.0,1.0
1624705322.21875,0,0,25.19345542178172,0.0,1.0
1624705322.6875,0,0,0.0,0.0,1.0
1624705323.15625,0,0,27.690219047676276,0.0,1.0
1624705323.625,0,0,2.4425369239859775,0.0,1.0
1624705324.09375,0,0,79.11497785572233,0.0,1.0
1624705324.5625,0,0,115.40714212244681,0.0,1.0
1624705325.03125,0,0,-2.4827349969753376,0.0,1.0
1624705325.5,0,0,45.428251070423244,0.0,1.0
1624705325.96875,0,0,0.0,0.0,1.0
1624705326.4375,0,0,24.093071023803468,0.0,1.0
1624705326.90625,0,0,12.159259216417166,0.0,1.0
1624705327.375,0,0,15.612017084869672,0.0,1.0
1624705327.84375,0,0,0.0,0.0,1.0
1624705328.3125,0,0,20.340890327094353,0.0,1.0
1624705328.78125,0,0,0.0,0.0,1.0
1624705329.25,0,0,22.13950599825541,0.0,1.0
1624705329.71875,0,0,0.0,0.0,1.0
1624705330.1875,0,0,-0.41060552329295713,0.0,1.0
1624705330.65625,0,0,0.0,0.0,1.0
1624705331.125,0,0,37.38356884817732,0.0,1.0
1624705331.59375,0,0,69.5553836975145,0.0,1.0
1624705332.0625,0,0,3.798782762437994,0.0,1.0
1624705332.53125,0,0,27.101519980607097,0.0,1.0
1624705333.0,0,0,0.0,0.0,1.0
1624705333.46875,0,0,18.936221090847056,0.0,1.0
1624705333.9375,0,0,0.0,0.0,1.0
1624705334.40625,0,0,0.0,0.0,1.0
1624705334.875,0,0,29.197122855668447,0.0,1.0
1624705335.34375,0,0,0.0,0.0,1.0
1624705335.8125,0,0,22.661890424923616,0.0,1.0
1624705336.28125,0,0,0.0,0.0,1.0
1624705336.75,0,0,0.0,0.0,1.0
1624705337.21875,0,0,18.377857091526145,0.0,1.0
1624705337.6875,0,0,0.0,0.0,1.0
1624705338.15625,0,0,44.92964204580906,0.0,1.0
1624705338.625,0,0,26.250132120841762,0.0,1.0
1624705339.09375,0,0,0.0,0.0,1.0
1624705339.5625,0,0,0.0,0.0,1.0
1624705340.03125,0,0,20.164543089508143,0.0,1.0
1624705340.5,0,0,0.0,0.0,1.0
1624705340.96875,0,0,0.0,0.0,1.0
1624705341.4375,0,0,16.047193748572088,0.0,1.0
1624705341.90625,0,0,29.657855366577763,0.0,1.0
1624705342.375,0,0,0.0,0.0,1.0
1624705342.84375,0,0,19.751251828576287,0.0,1.0
1624705343.3125,0,0,0.0,0.0,1.0
1624705343.78125,0,0,40.464727234817424,0.0,1.0
1624705344.25,0,0,0.0,0.0,1.0
1624705344.71875,0,0,28.573841692216913,0.0,1.0
1624705345.1875,0,0,15.079645678625875,0.0,1.0
1624705345.65625,0,0,0.0,0.0,1.0
1624705346.125,0,0,48.859152827333006,0.0,1.0
1624705346.59375,0,0,0.0,0.0,1.0
1624705347.0625,0,0,24.022738263785307,0.0,1.0
1624705347.53125,0,0,25.211467105340056,0.0,1.0
1624705348.0,0,0,31.832409619120945,0.0,1.0
1624705348.46875,0,0,47.05680656426328,0.0,1.0
1624705348.9375,0,0,0.0,0.0,1.0
1624705349.40625,0,0,19.613160685039784,0.0,1.0
1624705349.875,0,0,0.0,0.0,1.0
1624705350.34375,0,0,39.30770598387497,0.0,1.0
1624705350.8125,0,0,39.23478060716926,0.0,1.0
1624705351.28125,0,0,0.0,0.0,1.0
1624705351.75,0,0,26.240098376567367,0.0,1.0
1624705352.21875,0,0,21.703462100584026,0.0,1.0
1624705352.6875,0,0,11.269487365399437,0.0,1.0
1624705353.15625,0,0,0.0,0.0,1.0
1624705353.625,0,0,19.556195055402124,0.0,1.0
1624705354.09375,0,0,43.43140690214595,0.0,1.0
1624705354.5625,0,0,5.389644264407255,0.0,1.0
1624705355.03125,0,0,18.95433935019188,0.0,1.0
1624705355.5,0,0,0.0,0.0,1.0
1624705355.96875,0,0,33.912772373531205,0.0,1.0
1624705356.4375,0,0,0.0,0.0,1.0
1624705356.90625,0,0,0.0,0.0,1.0
1624705357.375,0,0,16.195396043791877,0.0,1.0
1624705357.84375,0,0,0.0,0.0,1.0
1624705358.3125,0,0,35.645009824681225,0.0,1.0
1624705358.78125,0,0,0.0,0.0,1.0
1624705359.25,0,0,30.072583085285103,0.0,1.0
1624705359.71875,0,0,23.198432340767596,0.0,1.0
1624705360.1875,0,0,0.0,0.0,1.0
1624705360.65625,0,0,22.177890117175565,0.0,1.0
1624705361.125,0,0,0.0,0.0,1.0
1624705361.59375,0,0,17.792467277224983,0.0,1.0
1624705362.0625,0,0,8.343588316640716,0.0,1.0
1624705362.53125,0,0,42.160527569287254,0.0,1.0
1624705363.0,0,0,18.281645153265558,0.0,1.0
1624705363.46875,0,0,6.57309093848639,0.0,1.0
1624705363.9375,0,0,0.0,0.0,1.0
1624705364.40625,0,0,15.637898024887582,0.0,1.0
1624705364.875,0,0,17.298172122622677,0.0,1.0
1624705365.34375,0,0,18.766919944909027,0.0,1.0
1624705365.8125,0,0,0.0,0.0,1.0
1624705366.28125,0,0,24.682060914780255,0.0,1.0
1624705366.75,0,0,21.65928677503526,0.0,1.0
1624705367.21875,0,0,0.0,0.0,1.0
1624705367.6875,0,0,19.18622374263982,0.0,1.0
1624705368.15625,0,0,0.0,0.0,1.0
1624705368.625,0,0,25.494447142483345,0.0,1.0
1624705369.09375,0,0,21.36336602883684,0.0,1.0
1624705369.5625,0,0,0.0,0.0,1.0
1624705370.03125,0,0,31.751507061265503,0.0,1.0
1624705370.5,0,0,0.0,0.0,1.0
1624705370.96875,0,0,22.545227719078348,0.0,1.0
1624705371.4375,0,0,0.0,0.0,1.0
1624705371.90625,0,0,22.24178677302786,0.0,1.0
1624705372.375,0,0,21.171636059654634,0.0,1.0
1624705372.84375,0,0,0.0,0.0,1.0
1624705373.3125,0,0,18.321645539204894,0.0,1.0
1624705373.78125,0,0,0.0,0.0,1.0
1624705374.25,0,0,29.303836027807673,0.0,1.0
1624705374.71875,0,0,0.0,0.0,1.0
1624705375.1875,0,0,22.123343419832352,0.0,1.0
1624705375.65625,0,0,17.60025377473011,0.0,1.0
1624705376.125,0,0,27.821429192065757,0.0,1.0
1624705376.59375,0,0,27.83772838963544,0.0,1.0
1624705377.0625,0,0,0.0,0.0,1.0
1624705377.53125,0,0,18.082600316449085,0.0,1.0
1624705378.0,0,0,0.0,0.0,1.0
1624705378.46875,0,0,23.936100331386132,0.0,1.0
1624705378.9375,0,0,9.951678898777859,0.0,1.0
1624705379.40625,0,0,36.37524139959871,0.0,1.0
1624705379.875,0,0,0.0,0.0,1.0
1624705380.34375,0,0,30.39432510932366,0.0,1.0
1624705380.8125,0,0,45.06363149635503,0.0,1.0
1624705381.28125,0,0,35.581827795016174,0.0,1.0
1624705381.75,0,0,0.0,0.0,1.0
1624705382.21875,0,0,59.06134456482984,0.0,1.0
1624705382.6875,0,0,15.199870430953187,0.0,1.0
1624705383.15625,0,0,0.0,0.0,1.0
1624705383.625,0,0,29.340315722350983,0.0,1.0
1624705384.09375,0,0,34.546809870114345,0.0,1.0
1624705384.5625,0,0,17.79397220911207,0.0,1.0
1624705385.03125,0,0,0.0,0.0,1.0
1624705385.5,0,0,27.201678508337896,0.0,1.0
1624705385.96875,0,0,0.0,0.0,1.0
1624705386.4375,0,0,21.739568027639862,0.0,1.0
1624705386.90625,0,0,0.0,0.0,1.0
1624705387.375,0,0,19.10790995333821,0.0,1.0
1624705387.84375,0,0,18.27716334868697,0.0,1.0
1624705388.3125,0,0,0.0,0.0,1.0
1624705388.78125,0,0,65.48415789149006,0.0,1.0
1624705389.25,0,0,29.025002880374892,0.0,1.0
1624705389.71875,0,0,108.21976987317991,0.0,1.0
1624705390.1875,0,0,9.06701369115633,0.0,1.0
1624705390.65625,0,0,57.24768189794394,0.0,1.0
1624705391.125,0,0,0.0,0.0,1.0
1624705391.59375,0,0,-34.407524312511896,0.0,1.0
1624705392.0625,0,0,43.848397373251885,0.0,1.0
1624705392.53125,0,0,36.76997638479957,0.0,1.0
1624705393.0,0,0,42.04395899096829,0.0,1.0
1624705393.46875,0,0,0.0,0.0,1.0
1624705393.9375,0,0,20.636645258600044,0.0,1.0
1624705394.40625,0,0,0.0,0.0,1.0
1624705394.875,0,0,21.486536051433593,0.0,1.0
1624705395.34375,0,0,24.077750250318037,0.0,1.0
1624705395.8125,0,0,0.0,0.0,1.0
1624705396.28125,0,0,19.44132522965541,0.0,1.0
1624705396.75,0,0,0.0,0.0,1.0
1624705397.21875,0,0,19.077406251273256,0.0,1.0
1624705397.6875,0,0,0.0,0.0,1.0
1624705398.15625,0,0,26.008636436528143,0.0,1.0
1624705398.625,0,0,0.0,0.0,1.0
1624705399.09375,0,0,21.857487923443827,0.0,1.0
1624705399.5625,0,0,23.941884369973764,0.0,1.0
1624705400.03125,0,0,0.0,0.0,1.0
1624705400.5,0,0,21.57331183923977,0.0,1.0
1624705400.96875,0,0,26.15190997921297,0.0,1.0
1624705401.4375,0,0,0.0,0.0,1.0
1624705401.90625,0,0,16.21095497141821,0.0,1.0
1624705402.375,0,0,0.0,0.0,1.0
1624705402.84375,0,0,26.368444905954544,0.0,1.0
1624705403.3125,0,0,0.0,0.0,1.0
1624705403.78125,0,0,13.983505282504794,0.0,1.0
1624705404.25,0,0,26.148043554441823,0.0,1.0
1624705404.71875,0,0,0.0,0.0,1.0
1624705405.1875,0,0,21.20541958741953,0.0,1.0
1624705405.65625,0,0,0.0,0.0,1.0
1624705406.125,0,0,23.923276200867868,0.0,1.0
1624705406.59375,0,0,0.0,0.0,1.0
1624705407.0625,0,0,21.09932441036677,0.0,1.0
1624705407.53125,0,0,32.02988706494999,0.0,1.0
1624705408.0,0,0,0.0,0.0,1.0
1624705408.46875,0,0,15.489055235832115,0.0,1.0
1624705408.9375,0,0,30.476453236679408,0.0,1.0
1624705409.40625,0,0,0.0,0.0,1.0
1624705409.875,0,0,29.5816403643568,0.0,1.0
1624705410.34375,0,0,0.0,0.0,1.0
1624705410.8125,0,0,19.45113747747477,0.0,1.0
1624705411.28125,0,0,17.724545111967537,0.0,1.0
1624705411.75,0,0,15.158609777685292,0.0,1.0
1624705412.21875,0,0,23.454257841180958,0.0,1.0
1624705412.6875,0,0,22.705896027627848,0.0,1.0
1624705413.15625,0,0,21.905966727901625,0.0,1.0
1624705413.625,0,0,0.0,0.0,1.0
1624705414.09375,0,0,17.000755421908092,0.0,1.0
1624705414.5625,0,0,0.0,0.0,1.0
1624705415.03125,0,0,27.05053250476224,0.0,1.0
1624705415.5,0,0,0.0,0.0,1.0
1624705415.96875,0,0,28.353416211077434,0.0,1.0
1624705416.4375,0,0,16.28239782662432,0.0,1.0
1624705416.90625,0,0,22.644404640446822,0.0,1.0
1624705417.375,0,0,0.0,0.0,1.0
1624705417.84375,0,0,0.0,0.0,1.0
1624705418.3125,0,0,26.688503289853305,0.0,1.0
1624705418.78125,0,0,22.14923342630625,0.0,1.0
1624705419.25,0,0,0.0,0.0,1.0
1624705419.71875,0,0,18.257105491889252,0.0,1.0
1624705420.1875,0,0,0.0,0.0,1.0
1624705420.65625,0,0,20.29901134575742,0.0,1.0
1624705421.125,0,0,6.856406738317635,0.0,1.0
1624705421.59375,0,0,-9.88077030438997,0.0,1.0
1624705422.0625,0,0,70.63706071269587,0.0,1.0
1624705422.53125,0,0,-0.19948703039483762,0.0,1.0
1624705423.0,0,0,-7.919329622056416,0.0,1.0
1624705423.46875,0,0,0.0,0.0,1.0
1624705423.9375,0,0,173.5176925864134,0.0,1.0
1624705424.40625,0,0,0.0,0.0,1.0
1624705424.875,0,0,32.07423527961015,0.0,1.0
1624705425.34375,0,0,25.641226546323693,0.0,1.0
1624705425.8125,0,0,0.0,0.0,1.0
1624705426.28125,0,0,24.79439697654899,0.0,1.0
1624705426.75,0,0,0.0,0.0,1.0
1624705427.21875,0,0,35.082317389793296,0.0,1.0
1624705427.6875,0,0,0.0,0.0,1.0
1624705428.15625,0,0,0.0,0.0,1.0
1624705428.625,0,0,13.13235494708794,0.0,1.0
1624705429.09375,0,0,0.0,0.0,1.0
1624705429.5625,0,0,22.058126932408406,0.0,1.0
1624705430.03125,0,0,53.25697624915239,0.0,1.0
1624705430.5,0,0,0.0,0.0,1.0
1624705430.96875,0,0,18.227111918742924,0.0,1.0
1624705431.4375,0,0,16.03485623617292,0.0,1.0
1624705431.90625,0,0,15.340063646187195,0.0,1.0
1624705432.375,0,0,8.690408791064804,0.0,1.0
1624705432.84375,0,0,25.35444934227389,0.0,1.0
1624705433.3125,0,0,0.0,0.0,1.0
1624705433.78125,0,0,32.91556417494372,0.0,1.0
1624705434.25,0,0,0.0,0.0,1.0
1624705434.71875,0,0,40.02047257890491,0.0,1.0
1624705435.1875,0,0,24.19978873164031,0.0,1.0
1624705435.65625,0,0,0.0,0.0,1.0
1624705436.125,0,0,22.289168739530393,0.0,1.0
1624705436.59375,0,0,0.0,0.0,1.0
1624705437.0625,0,0,36.10044867158763,0.0,1.0
1624705437.53125,0,0,0.0,0.0,1.0
1624705438.0,0,0,127.81398832209997,0.0,1.0
1624705438.46875,0,0,0.0,0.0,1.0
1624705438.9375,0,0,93.00381807754452,0.0,1.0
1624705439.40625,0,0,0.0,0.0,1.0
1624705439.875,0,0,238.9119506573232,0.0,1.0
1624705440.34375,0,0,306.33424708161624,0.0,1.0
1624705440.8125,0,0,0.0,0.0,1.0
1624705441.28125,0,0,63.692363363191255,0.0,1.0
1624705441.75,0,0,55.97488084636119,0.0,1.0
1624705442.21875,0,0,13.772885014253161,0.0,1.0
1624705442.6875,0,0,0.0,0.0,1.0
1624705443.15625,0,0,25.38024005515974,0.0,1.0
1624705443.625,0,0,28.89161556004834,0.0,1.0
1624705444.09375,0,0,0.0,0.0,1.0
1624705444.5625,0,0,16.69201717075958,0.0,1.0
1624705445.03125,0,0,0.0,0.0,1.0
1624705445.5,0,0,27.776899269308313,0.0,1.0
1624705445.96875,0,0,0.0,0.0,1.0
1624705446.4375,0,0,0.0,0.0,1.0
1624705446.90625,0,0,0.0,0.0,1.0
1624705447.375,0,0,92.24703105692521,0.0,1.0
1624705447.84375,0,0,63.569595895370924,0.0,1.0
1624705448.3125,0,0,0.0,0.0,1.0
1624705448.78125,0,0,47.53098940211065,0.0,1.0
1624705449.25,0,0,14.014224676780193,0.0,1.0
1624705449.71875,0,0,0.0,0.0,1.0
1624705450.1875,0,0,18.049088654409527,0.0,1.0
1624705450.65625,0,0,20.364642768412008,0.0,1.0
1624705451.125,0,0,0.0,0.0,1.0
1624705451.59375,0,0,22.206972702899485,0.0,1.0
1624705452.0625,0,0,0.0,0.0,1.0
1624705452.53125,0,0,18.24815119427721,0.0,1.0
1624705453.0,0,0,0.0,0.0,1.0
1624705453.46875,0,0,35.86106290164105,0.0,1.0
1624705453.9375,0,0,0.0,0.0,1.0
1624705454.40625,0,0,15.120171445693073,0.0,1.0
1624705454.875,0,0,22.721289489148297,0.0,1.0
1624705455.34375,0,0,0.0,0.0,1.0
1624705455.8125,0,0,24.69838960416686,0.0,1.0
1624705456.28125,0,0,0.0,0.0,1.0
1624705456.75,0,0,30.902299885078715,0.0,1.0
1624705457.21875,0,0,0.0,0.0,1.0
1624705457.6875,0,0,27.413301598762033,0.0,1.0
1624705458.15625,0,0,25.292503726687684,0.0,1.0
1624705458.625,0,0,0.0,0.0,1.0
1624705459.09375,0,0,36.85167603501382,0.0,1.0
1624705459.5625,0,0,15.105509191486329,0.0,1.0
1624705460.03125,0,0,0.0,0.0,1.0
1624705460.5,0,0,46.62054726475102,0.0,1.0
1624705460.96875,0,0,0.0,0.0,1.0
1624705461.4375,0,0,30.072469836471036,0.0,1.0
1624705461.90625,0,0,23.61986966212987,0.0,1.0
1624705462.375,0,0,0.0,0.0,1.0
1624705462.84375,0,0,20.273401286800116,0.0,1.0
1624705463.3125,0,0,0.0,0.0,1.0
1624705463.78125,0,0,20.353880574000677,0.0,1.0
1624705464.25,0,0,-1.6638121736335791,0.0,1.0
1624705464.71875,0,0,36.47343771120295,0.0,1.0
1624705465.1875,0,0,12.727993194822627,0.0,1.0
1624705465.65625,0,0,0.0,0.0,1.0
1624705466.125,0,0,29.052377479689287,0.0,1.0
1624705466.59375,0,0,25.170256782021003,0.0,1.0
1624705467.0625,0,0,0.0,0.0,1.0
1624705467.53125,0,0,25.154468920380964,0.0,1.0
1624705468.0,0,0,18.09873300589791,0.0,1.0
1624705468.46875,0,0,7.498941749640627,0.0,1.0
1624705468.9375,0,0,15.412046781054146,0.0,1.0
1624705469.40625,0,0,20.67391080529266,0.0,1.0
1624705469.875,0,0,0.0,0.0,1.0
1624705470.34375,0,0,21.538749812246493,0.0,1.0
1624705470.8125,0,0,8.385547556348497,0.0,1.0
1624705471.28125,0,0,0.0,0.0,1.0
1624705471.75,0,0,36.8950068324286,0.0,1.0
1624705472.21875,0,0,18.095764756269272,0.0,1.0
1624705472.6875,0,0,17.16739941495065,0.0,1.0
1624705473.15625,0,0,21.520151135594755,0.0,1.0
1624705473.625,0,0,0.0,0.0,1.0
1624705474.09375,0,0,14.899969166729916,0.0,1.0
1624705474.5625,0,0,29.402604978971954,0.0,1.0
1624705475.03125,0,0,-10.168774936650056,0.0,1.0
1624705475.5,0,0,15.759893937753525,0.0,1.0
1624705475.96875,0,0,13.62963062372004,0.0,1.0
1624705476.4375,0,0,15.184796439962248,0.0,1.0
1624705476.90625,0,0,18.55676737335921,0.0,1.0
1624705477.375,0,0,0.0,0.0,1.0
1624705477.84375,0,0,8.763795435551579,0.0,1.0
1624705478.3125,0,0,39.24970480829104,0.0,1.0
1624705478.78125,0,0,0.0,0.0,1.0
1624705479.25,0,0,9.86365838330921,0.0,1.0
1624705479.71875,0,0,20.98067352106318,0.0,1.0
1624705480.1875,0,0,76.49987830563664,0.0,1.0
1624705480.65625,0,0,0.0,0.0,1.0
1624705481.125,0,0,42.07739073987792,0.0,1.0
1624705481.59375,0,0,0.0,0.0,1.0
1624705482.0625,0,0,32.67043947782149,0.0,1.0
1624705482.53125,0,0,17.387397629226243,0.0,1.0
1624705483.0,0,0,0.0,0.0,1.0
1624705483.46875,0,0,23.247495549039247,0.0,1.0
1624705483.9375,0,0,10.349798436553346,0.0,1.0
1624705484.40625,0,0,7.989307897074946,0.0,1.0
1624705484.875,0,0,19.48305133904359,0.0,1.0
1624705485.34375,0,0,0.0,0.0,1.0
1624705485.8125,0,0,35.689604165025266,0.0,1.0
1624705486.28125,0,0,36.000227050723026,0.0,1.0
1624705486.75,0,0,0.0,0.0,1.0
1624705487.21875,0,0,34.26496241389789,0.0,1.0
1624705487.6875,0,0,18.55678622451614,0.0,1.0
1624705488.15625,0,0,27.28379834455241,0.0,1.0
1624705488.625,0,0,16.07828307480231,0.0,1.0
1624705489.09375,0,0,0.0,0.0,1.0
1624705489.5625,0,0,30.77745859950155,0.0,1.0
1624705490.03125,0,0,0.0,0.0,1.0
1624705490.5,0,0,31.102577292517108,0.0,1.0
1624705490.96875,0,0,-10.766674565087602,0.0,1.0
1624705491.4375,0,0,20.139717905165956,0.0,1.0
1624705491.90625,0,0,-3.941400985936394,0.0,1.0
1624705492.375,0,0,24.26211177674947,0.0,1.0
1624705492.84375,0,0,24.174464060738273,0.0,1.0
1624705493.3125,0,0,0.0,0.0,1.0
1624705493.78125,0,0,31.48786815842926,0.0,1.0
1624705494.25,0,0,0.0,0.0,1.0
1624705494.71875,0,0,46.52390671806439,0.0,1.0
1624705495.1875,0,0,3.1851753105552603,0.0,1.0
1624705495.65625,0,0,49.0846342432963,0.0,1.0
1624705496.125,0,0,86.55088545062189,0.0,1.0
1624705496.59375,0,0,14.14850388658949,0.0,1.0
1624705497.0625,0,0,15.746087311148331,0.0,1.0
1624705497.53125,0,0,65.48877775208547,0.0,1.0
1624705498.0,0,0,91.0048713168537,0.0,1.0
1624705498.46875,0,0,0.0,0.0,1.0
1624705498.9375,0,0,30.436050471320577,0.0,1.0
1624705499.40625,0,0,0.0,0.0,1.0
1624705499.875,0,0,20.41098817467176,0.0,1.0
1624705500.34375,0,0,0.0,0.0,1.0
1624705500.8125,0,0,26.166309591983516,0.0,1.0
1624705501.28125,0,0,0.0,0.0,1.0
1624705501.75,0,0,28.689108707330377,0.0,1.0
1624705502.21875,0,0,17.79862017590594,0.0,1.0
1624705502.6875,0,0,0.0,0.0,1.0
1624705503.15625,0,0,22.374021794121358,0.0,1.0
1624705503.625,0,0,0.0,0.0,1.0
1624705504.09375,0,0,29.885207154921368,0.0,1.0
1624705504.5625,0,0,0.0,0.0,1.0
1624705505.03125,0,0,52.053726134480144,0.0,1.0
1624705505.5,0,0,20.87209915176961,0.0,1.0
1624705505.96875,0,0,-5.605694480098756,0.0,1.0
1624705506.4375,0,0,52.39719512588204,0.0,1.0
1624705506.90625,0,0,17.190242238657746,0.0,1.0
1624705507.375,0,0,74.21029107705795,0.0,1.0
1624705507.84375,0,0,112.82910636953724,0.0,1.0
1624705508.3125,0,0,75.10620260646782,0.0,1.0
1624705508.78125,0,0,37.32112456114942,0.0,1.0
1624705509.25,0,0,60.908594157881645,0.0,1.0
1624705509.71875,0,0,57.815542933246874,0.0,1.0
1624705510.1875,0,0,0.0,0.0,1.0
1624705510.65625,0,0,0.0,0.0,1.0
1624705511.125,0,0,20.98058145636898,0.0,1.0
1624705511.59375,0,0,22.459123541318537,0.0,1.0
1624705512.0625,0,0,24.596667795660647,0.0,1.0
1624705512.53125,0,0,0.0,0.0,1.0
1624705513.0,0,0,30.115871061048,0.0,1.0
1624705513.46875,0,0,0.0,0.0,1.0
1624705513.9375,0,0,26.21725247395932,0.0,1.0
1624705514.40625,0,0,11.573140071292057,0.0,1.0
1624705514.875,0,0,6.416168683912936,0.0,1.0
1624705515.34375,0,0,15.880182287116435,0.0,1.0
1624705515.8125,0,0,0.0,0.0,1.0
1624705516.28125,0,0,12.627103220717341,0.0,1.0
1624705516.75,0,0,20.656762821646044,0.0,1.0
1624705517.21875,0,0,0.0,0.0,1.0
1624705517.6875,0,0,10.791225002987817,0.0,1.0
1624705518.15625,0,0,0.0,0.0,1.0
1624705518.625,0,0,19.684253064944556,0.0,1.0
1624705519.09375,0,0,17.44128215970165,0.0,1.0
1624705519.5625,0,0,0.0,0.0,1.0
1624705520.03125,0,0,21.888846692259932,0.0,1.0
1624705520.5,0,0,0.0,0.0,1.0
1624705520.96875,0,0,23.824298273962274,0.0,1.0
1624705521.4375,0,0,18.60237503915955,0.0,1.0
1624705521.90625,0,0,14.484014128823901,0.0,1.0
1624705522.375,0,0,0.0,0.0,1.0
1624705522.84375,0,0,37.89727014287018,0.0,1.0
1624705523.3125,0,0,0.0,0.0,1.0
1624705523.78125,0,0,23.84233251863548,0.0,1.0
1624705524.25,0,0,0.0,0.0,1.0
1624705524.71875,0,0,124.30681648357289,0.0,1.0
1624705525.1875,0,0,0.0,0.0,1.0
1624705525.65625,0,0,39.6621847222228,0.0,1.0
1624705526.125,0,0,33.19655500563977,0.0,1.0
1624705526.59375,0,0,6.756023674846384,0.0,1.0
1624705527.0625,0,0,0.0,0.0,1.0
1624705527.53125,0,0,58.79523108436947,0.0,1.0
1624705528.0,0,0,0.0,0.0,1.0
1624705528.46875,0,0,0.0,0.0,1.0
1624705528.9375,0,0,29.538362617019544,0.0,1.0
1624705529.40625,0,0,29.65051515928577,0.0,1.0
1624705529.875,0,0,0.0,0.0,1.0
1624705530.34375,0,0,26.788820470856933,0.0,1.0
1624705530.8125,0,0,25.438710489156055,0.0,1.0
1624705531.28125,0,0,0.0,0.0,1.0
1624705531.75,0,0,20.305214535555727,0.0,1.0
1624705532.21875,0,0,25.69511732204247,0.0,1.0
1624705532.6875,0,0,33.743280536764054,0.0,1.0
1624705533.15625,0,0,32.03861569589006,0.0,1.0
1624705533.625,0,0,0.0,0.0,1.0
1624705534.09375,0,0,40.77128709569791,0.0,1.0
1624705534.5625,0,0,0.0,0.0,1.0
1624705535.03125,0,0,0.0,0.0,1.0
1624705535.5,0,0,19.12705315147978,0.0,1.0
1624705535.96875,0,0,92.34731958484375,0.0,1.0
1624705536.4375,0,0,90.76027387320345,0.0,1.0
1624705536.90625,0,0,65.08102321541732,0.0,1.0
1624705537.375,0,0,127.4338619821541,0.0,1.0
1624705537.84375,0,0,0.0,0.0,1.0
1624705538.3125,0,0,20.485025302647898,0.0,1.0
1624705538.78125,0,0,12.38103653255234,0.0,1.0
1624705539.25,0,0,102.07811590060226,0.0,1.0
1624705539.71875,0,0,-26.929894436487007,0.0,1.0
1624705540.1875,0,0,0.0,0.0,1.0
1624705540.65625,0,0,8.725943563132843,0.0,1.0
1624705541.125,0,0,16.58638564395178,0.0,1.0
1624705541.59375,0,0,7.092970666496828,0.0,1.0
1624705542.0625,0,0,4.337555501013386,0.0,1.0
1624705542.53125,0,0,5.740773198304634,0.0,1.0
1624705543.0,0,0,0.0,0.0,1.0
1624705543.46875,0,0,12.189922599485923,0.0,1.0
1624705543.9375,0,0,0.0,0.0,1.0
1624705544.40625,0,0,8.654387210779287,0.0,1.0
1624705544.875,0,0,0.0,0.0,1.0
1624705545.34375,0,0,0.0,0.0,1.0
1624705545.8125,0,0,9.132718509941085,0.0,1.0
1624705546.28125,0,0,0.0,0.0,1.0
1624705546.75,0,0,9.614590573766804,0.0,1.0
1624705547.21875,0,0,12.134261506856735,0.0,1.0
1624705547.6875,0,0,0.0,0.0,1.0
1624705548.15625,0,0,7.656778915739506,0.0,1.0
1624705548.625,0,0,0.0,0.0,1.0
1624705549.09375,0,0,11.795641048529834,0.0,1.0
1624705549.5625,0,0,9.967865451156563,0.0,1.0
1624705550.03125,0,0,0.0,0.0,1.0
1624705550.5,0,0,8.59501034576343,0.0,1.0
1624705550.96875,0,0,6.751581732444644,0.0,1.0
1624705551.4375,0,0,-3.045140996329285,0.0,1.0
1624705551.90625,0,0,19.44166889376456,0.0,1.0
1624705552.375,0,0,0.0,0.0,1.0
1624705552.84375,0,0,7.21010629759774,0.0,1.0
1624705553.3125,0,0,0.0,0.0,1.0
1624705553.78125,0,0,10.431447704801705,0.0,1.0
1624705554.25,0,0,38.03207420943073,0.0,1.0
1624705554.71875,0,0,0.0,0.0,1.0
1624705555.1875,0,0,0.0,0.0,1.0
1624705555.65625,0,0,335.34159310687664,0.0,1.0
1624705556.125,0,0,0.0,0.0,1.0
1624705556.59375,0,0,26.76659353336718,0.0,1.0
1624705557.0625,0,0,188.38249344572776,0.0,1.0
1624705557.53125,0,0,-23.994295890101814,0.0,1.0
1624705558.0,0,0,0.0,0.0,1.0
1624705558.46875,0,0,60.2365742626903,0.0,1.0
1624705558.9375,0,0,0.0,0.0,1.0
1624705559.40625,0,0,73.37635297877587,0.0,1.0
1624705559.875,0,0,0.0,0.0,1.0
1624705560.34375,0,0,86.36760925219477,0.0,1.0
1624705560.8125,0,0,0.0,0.0,1.0
1624705561.28125,0,0,12.202524495188344,0.0,1.0
1624705561.75,0,0,15.778068655197206,0.0,1.0
1624705562.21875,0,0,0.0,0.0,1.0
1624705562.6875,0,0,18.837013477944595,0.0,1.0
1624705563.15625,0,0,0.0,0.0,1.0
1624705563.625,0,0,22.86670107395495,0.0,1.0
1624705564.09375,0,0,5.381408920697505,0.0,1.0
1624705564.5625,0,0,-2.4401205657056453,0.0,1.0
1624705565.03125,0,0,0.0,0.0,1.0
1624705565.5,0,0,0.0,0.0,1.0
1624705565.96875,0,0,-17.38665122389275,0.0,1.0
1624705566.4375,0,0,223.27917198504275,0.0,1.0
1624705566.90625,0,0,-0.23885660070308745,0.0,1.0
1624705567.375,0,0,18.676315170209676,0.0,1.0
1624705567.84375,0,0,49.637817628344365,0.0,1.0
1624705568.3125,0,0,0.0,0.0,1.0
1624705568.78125,0,0,22.69589955447141,0.0,1.0
1624705569.25,0,0,20.904127864229068,0.0,1.0
1624705569.71875,0,0,0.0,0.0,1.0
1624705570.1875,0,0,33.92269599250866,0.0,1.0
1624705570.65625,0,0,0.0,0.0,1.0
1624705571.125,0,0,14.703284132142445,0.0,1.0
1624705571.59375,0,0,0.0,0.0,1.0
1624705572.0625,0,0,27.234627448312835,0.0,1.0
1624705572.53125,0,0,0.0,0.0,1.0
1624705573.0,0,0,24.678356137782384,0.0,1.0
1624705573.46875,0,0,15.233388275913034,0.0,1.0
1624705573.9375,0,0,17.126617058186284,0.0,1.0
1624705574.40625,0,0,0.0,0.0,1.0
1624705574.875,0,0,0.0,0.0,1.0
1624705575.34375,0,0,26.653814266632104,0.0,1.0
1624705575.8125,0,0,0.0,0.0,1.0
1624705576.28125,0,0,33.93967201370591,0.0,1.0
1624705576.75,0,0,0.0,0.0,1.0
1624705577.21875,0,0,18.93777978425497,0.0,1.0
1624705577.6875,0,0,36.076399789032756,0.0,1.0
1624705578.15625,0,0,40.317346203939316,0.0,1.0
1624705578.625,0,0,42.25751016749074,0.0,1.0
1624705579.09375,0,0,0.0,0.0,1.0
1624705579.5625,0,0,28.08786353428421,0.0,1.0
1624705580.03125,0,0,25.294780314293234,0.0,1.0
1624705580.5,0,0,15.062100182486011,0.0,1.0
1624705580.96875,0,0,29.847781164028042,0.0,1.0
1624705581.4375,0,0,0.0,0.0,1.0
1624705581.90625,0,0,-14.177438954252636,0.0,1.0
1624705582.375,0,0,208.1238662747189,0.0,1.0
1624705582.84375,0,0,71.06122544347913,0.0,1.0
1624705583.3125,0,0,0.0,0.0,1.0
1624705583.78125,0,0,194.65966493843987,0.0,1.0
1624705584.25,0,0,0.0,0.0,1.0
1624705584.71875,0,0,117.49943620159105,0.0,1.0
1624705585.1875,0,0,0.0,0.0,1.0
1624705585.65625,0,0,80.48201940840127,0.0,1.0
1624705586.125,0,0,0.0,0.0,1.0
1624705586.59375,0,0,0.0,0.0,1.0
1624705587.0625,0,0,39.941689133908746,0.0,1.0
1624705587.53125,0,0,20.53620182918219,0.0,1.0
1624705588.0,0,0,0.0,0.0,1.0
1624705588.46875,0,0,21.6864781578704,0.0,1.0
1624705588.9375,0,0,14.971902410143262,0.0,1.0
1624705589.40625,0,0,0.0,0.0,1.0
1624705589.875,0,0,11.552693046968225,0.0,1.0
1624705590.34375,0,0,0.0,0.0,1.0
1624705590.8125,0,0,13.111711419178379,0.0,1.0
1624705591.28125,0,0,8.807356530784805,0.0,1.0
1624705591.75,0,0,0.22651004240795097,0.0,1.0
1624705592.21875,0,0,26.04902173092294,0.0,1.0
1624705592.6875,0,0,0.0,0.0,1.0
1624705593.15625,0,0,17.893741957633303,0.0,1.0
1624705593.625,0,0,27.55973245898308,0.0,1.0
1624705594.09375,0,0,1.7817237986815506,0.0,1.0
1624705594.5625,0,0,15.7390812775252,0.0,1.0
1624705595.03125,0,0,0.0,0.0,1.0
1624705595.5,0,0,21.845649882108795,0.0,1.0
1624705595.96875,0,0,21.93181325698764,0.0,1.0
1624705596.4375,0,0,28.059353295896283,0.0,1.0
1624705596.90625,0,0,19.890215379746174,0.0,1.0
1624705597.375,0,0,0.0,0.0,1.0
1624705597.84375,0,0,42.08400789965053,0.0,1.0
1624705598.3125,0,0,-6.9735442863645,0.0,1.0
1624705598.78125,0,0,15.564494947069248,0.0,1.0
1624705599.25,0,0,13.411534956762361,0.0,1.0
1624705599.71875,0,0,20.967127586745963,0.0,1.0
1624705600.1875,0,0,18.314952480810504,0.0,1.0
1624705600.65625,0,0,0.0,0.0,1.0
1624705601.125,0,0,0.0,0.0,1.0
1624705601.59375,0,0,6.622132915908191,0.0,1.0
1624705602.0625,0,0,67.68340934422498,0.0,1.0
1624705602.53125,0,0,42.0669194039182,0.0,1.0
1624705603.0,0,0,28.568563960283004,0.0,1.0
1624705603.46875,0,0,42.24287177365837,0.0,1.0
1624705603.9375,0,0,66.80092636788847,0.0,1.0
1624705604.40625,0,0,95.32926760743085,0.0,1.0
1624705604.875,0,0,0.0,0.0,1.0
1624705605.34375,0,0,-0.9623916965671925,0.0,1.0
1624705605.8125,0,0,38.5989362428305,0.0,1.0
1624705606.28125,0,0,39.69117739369504,0.0,1.0
1624705606.75,0,0,20.97709283447579,0.0,1.0
1624705607.21875,0,0,0.0,0.0,1.0
1624705607.6875,0,0,12.58186419460503,0.0,1.0
1624705608.15625,0,0,23.654744778832598,0.0,1.0
1624705608.625,0,0,-1.1098077659453405,0.0,1.0
1624705609.09375,0,0,22.071042384146622,0.0,1.0
1624705609.5625,0,0,22.93504155116708,0.0,1.0
1624705610.03125,0,0,36.292139358540865,0.0,1.0
1624705610.5,0,0,0.0,0.0,1.0
1624705610.96875,0,0,32.92983050367592,0.0,1.0
1624705611.4375,0,0,16.48162840871232,0.0,1.0
1624705611.90625,0,0,0.0,0.0,1.0
1624705612.375,0,0,15.596716356021776,0.0,1.0
1624705612.84375,0,0,0.0,0.0,1.0
1624705613.3125,0,0,72.21279661317473,0.0,1.0
1624705613.78125,0,0,-72.93662159425573,0.0,1.0
1624705614.25,0,0,239.69320798352572,0.0,1.0
1624705614.71875,0,0,211.02234163835294,0.0,1.0
1624705615.1875,0,0,135.55064218988443,0.0,1.0
1624705615.65625,0,0,218.8495147352149,0.0,1.0
1624705616.125,0,0,41.21073693962093,0.0,1.0
1624705616.59375,0,0,60.016235774114634,0.0,1.0
1624705617.0625,0,0,36.92676982205336,0.0,1.0
1624705617.53125,0,0,0.0,0.0,1.0
1624705618.0,0,0,299.5490999092701,0.0,1.0
1624705618.46875,0,0,75.0991148006993,0.0,1.0
1624705618.9375,0,0,220.3350266401411,0.0,1.0
1624705619.40625,0,0,0.0,0.0,1.0
1624705619.875,0,0,172.208032738062,0.0,1.0
1624705620.34375,0,0,103.61719836247501,0.0,1.0
1624705620.8125,0,0,44.49729216051081,0.0,1.0
1624705621.28125,0,0,24.872168886439088,0.0,1.0
1624705621.75,0,0,44.53203927908879,0.0,1.0
1624705622.21875,0,0,10.11606872630151,0.0,1.0
1624705622.6875,0,0,0.0,0.0,1.0
1624705623.15625,0,0,22.37384927686434,0.0,1.0
1624705623.625,0,0,0.0,0.0,1.0
1624705624.09375,0,0,39.18226870654665,0.0,1.0
1624705624.5625,0,0,32.38541087051601,0.0,1.0
1624705625.03125,0,0,0.0,0.0,1.0
1624705625.5,0,0,69.47081496115672,0.0,1.0
1624705625.96875,0,0,24.970385621217662,0.0,1.0
1624705626.4375,0,0,0.0,0.0,1.0
1624705626.90625,0,0,10.906232952408553,0.0,1.0
1624705627.375,0,0,7.685171421730755,0.0,1.0
1624705627.84375,0,0,23.940193504462094,0.0,1.0
1624705628.3125,0,0,0.0,0.0,1.0
1624705628.78125,0,0,25.22446554405577,0.0,1.0
1624705629.25,0,0,16.72701849280247,0.0,1.0
1624705629.71875,0,0,13.094477729063936,0.0,1.0
1624705630.1875,0,0,0.0,0.0,1.0
1624705630.65625,0,0,15.49400412963918,0.0,1.0
1624705631.125,0,0,0.0,0.0,1.0
1624705631.59375,0,0,15.984379449072344,0.0,1.0
1624705632.0625,0,0,0.0,0.0,1.0
1624705632.53125,0,0,19.1480097629058,0.0,1.0
1624705633.0,0,0,3.7681688329328744,0.0,1.0
1624705633.46875,0,0,25.808700554208972,0.0,1.0
1624705633.9375,0,0,0.0,0.0,1.0
1624705634.40625,0,0,24.022838833551027,0.0,1.0
1624705634.875,0,0,0.0,0.0,1.0
1624705635.34375,0,0,7.460361370720952,0.0,1.0
1624705635.8125,0,0,0.0,0.0,1.0
1624705636.28125,0,0,23.567927529849452,0.0,1.0
1624705636.75,0,0,22.22463282548076,0.0,1.0
1624705637.21875,0,0,0.0,0.0,1.0
1624705637.6875,0,0,16.93900667604988,0.0,1.0
1624705638.15625,0,0,9.938668233135989,0.0,1.0
1624705638.625,0,0,9.653701322270383,0.0,1.0
1624705639.09375,0,0,50.63199453517282,0.0,1.0
1624705639.5625,0,0,-8.687254276558303,0.0,1.0
1624705640.03125,0,0,15.482485684811174,0.0,1.0
1624705640.5,0,0,0.0,0.0,1.0
1624705640.96875,0,0,36.164423167764596,0.0,1.0
1624705641.4375,0,0,0.0,0.0,1.0
1624705641.90625,0,0,0.0,0.0,1.0
1624705642.375,0,0,0.0,0.0,1.0
1624705642.84375,0,0,15.427605094923624,0.0,1.0
1624705643.3125,0,0,31.660082636854185,0.0,1.0
1624705643.78125,0,0,0.0,0.0,1.0
1624705644.25,0,0,31.31801723651446,0.0,1.0
1624705644.71875,0,0,0.0,0.0,1.0
1624705645.1875,0,0,33.890060676019765,0.0,1.0
1624705645.65625,0,0,16.276631880862507,0.0,1.0
1624705646.125,0,0,0.0,0.0,1.0
1624705646.59375,0,0,23.551018104435407,0.0,1.0
1624705647.0625,0,0,0.0,0.0,1.0
1624705647.53125,0,0,30.96181333568559,0.0,1.0
1624705648.0,0,0,32.44773361107367,0.0,1.0
1624705648.46875,0,0,9.817521601486177,0.0,1.0
1624705648.9375,0,0,35.4188897233545,0.0,1.0
1624705649.40625,0,0,0.0,0.0,1.0
1624705649.875,0,0,27.929914915207156,0.0,1.0
1624705650.34375,0,0,11.718880246878735,0.0,1.0
1624705650.8125,0,0,13.525060427956113,0.0,1.0
1624705651.28125,0,0,10.460851295466238,0.0,1.0
1624705651.75,0,0,11.30983154491941,0.0,1.0
1624705652.21875,0,0,8.03839938638151,0.0,1.0
1624705652.6875,0,0,0.0,0.0,1.0
1624705653.15625,0,0,20.800069462635175,0.0,1.0
1624705653.625,0,0,0.0,0.0,1.0
1624705654.09375,0,0,18.56239666110473,0.0,1.0
1624705654.5625,0,0,18.673946998995966,0.0,1.0
1624705655.03125,0,0,0.0,0.0,1.0
1624705655.5,0,0,14.665616206884978,0.0,1.0
1624705655.96875,0,0,0.0,0.0,1.0
1624705656.4375,0,0,14.77023302208319,0.0,1.0
1624705656.90625,0,0,0.0,0.0,1.0
1624705657.375,0,0,14.109540525140485,0.0,1.0
1624705657.84375,0,0,0.0,0.0,1.0
1624705658.3125,0,0,15.327466462451547,0.0,1.0
1624705658.78125,0,0,18.90162788151927,0.0,1.0
1624705659.25,0,0,6.342120755150923,0.0,1.0
1624705659.71875,0,0,16.214752722252577,0.0,1.0
1624705660.1875,0,0,0.0,0.0,1.0
1624705660.65625,0,0,14.157622892896006,0.0,1.0
1624705661.125,0,0,0.0,0.0,1.0
1624705661.59375,0,0,13.682619165958783,0.0,1.0
1624705662.0625,0,0,0.0,0.0,1.0
1624705662.53125,0,0,21.823335674372995,0.0,1.0
1624705663.0,0,0,15.32879463306808,0.0,1.0
1624705663.46875,0,0,0.0,0.0,1.0
1624705663.9375,0,0,20.20601546715381,0.0,1.0
1624705664.40625,0,0,0.0,0.0,1.0
1624705664.875,0,0,14.78977867869458,0.0,1.0
1624705665.34375,0,0,0.0,0.0,1.0
1624705665.8125,0,0,35.27247811926192,0.0,1.0
1624705666.28125,0,0,0.0,0.0,1.0
1624705666.75,0,0,0.0,0.0,1.0
1624705667.21875,0,0,13.143366584996487,0.0,1.0
1624705667.6875,0,0,0.0,0.0,1.0
1624705668.15625,0,0,10.95534928923424,0.0,1.0
1624705668.625,0,0,13.752629162472592,0.0,1.0
1624705669.09375,0,0,0.0,0.0,1.0
1624705669.5625,0,0,7.45209397620098,0.0,1.0
1624705670.03125,0,0,0.0,0.0,1.0
1624705670.5,0,0,17.28413620610675,0.0,1.0
1624705670.96875,0,0,16.379457567321946,0.0,1.0
1624705671.4375,0,0,3.1881469806575873,0.0,1.0
1624705671.90625,0,0,15.147943238925093,0.0,1.0
1624705672.375,0,0,0.0,0.0,1.0
1624705672.84375,0,0,17.83197041033137,0.0,1.0
1624705673.3125,0,0,30.706321442609287,0.0,1.0
1624705673.78125,0,0,56.71760955649787,0.0,1.0
1624705674.25,0,0,24.296176582895125,0.0,1.0
1624705674.71875,0,0,-21.146468309805343,0.0,1.0
1624705675.1875,0,0,24.23285607901718,0.0,1.0
1624705675.65625,0,0,0.0,0.0,1.0
1624705676.125,0,0,13.611203508179,0.0,1.0
1624705676.59375,0,0,0.0,0.0,1.0
1624705677.0625,0,0,11.177660030294756,0.0,1.0
1624705677.53125,0,0,15.66044872609976,0.0,1.0
1624705678.0,0,0,0.0,0.0,1.0
1624705678.46875,0,0,12.299909553321385,0.0,1.0
1624705678.9375,0,0,0.0,0.0,1.0
1624705679.40625,0,0,15.117548655472783,0.0,1.0
1624705679.875,0,0,0.0,0.0,1.0
1624705680.34375,0,0,113.95655826046534,0.0,1.0
1624705680.8125,0,0,132.5398191364608,0.0,1.0
1624705681.28125,0,0,0.0,0.0,1.0
1624705681.75,0,0,82.81579584813849,0.0,1.0
1624705682.21875,0,0,4.584171004815311,0.0,1.0
1624705682.6875,0,0,206.27081798260076,0.0,1.0
1624705683.15625,0,0,84.62427725687444,0.0,1.0
1624705683.625,0,0,-29.25913042225473,0.0,1.0
1624705684.09375,0,0,417.0789943103666,0.0,1.0
1624705684.5625,0,0,0.0,0.0,1.0
1624705685.03125,0,0,81.99844323135949,0.0,1.0
1624705685.5,0,0,45.44337760438744,0.0,1.0
1624705685.96875,0,0,0.0,0.0,1.0
1624705686.4375,0,0,24.91013242834683,0.0,1.0
1624705686.90625,0,0,1.989269550887995,0.0,1.0
1624705687.375,0,0,18.750524914658836,0.0,1.0
1624705687.84375,0,0,14.674898078935295,0.0,1.0
1624705688.3125,0,0,17.063588622494184,0.0,1.0
1624705688.78125,0,0,0.0,0.0,1.0
1624705689.25,0,0,17.414108701571177,0.0,1.0
1624705689.71875,0,0,0.0,0.0,1.0
1624705690.1875,0,0,36.476263432915665,0.0,1.0
1624705690.65625,0,0,0.0,0.0,1.0
1624705691.125,0,0,16.14381553364401,0.0,1.0
1624705691.59375,0,0,0.0,0.0,1.0
1624705692.0625,0,0,28.26175233546622,0.0,1.0
1624705692.53125,0,0,12.656867994481452,0.0,1.0
1624705693.0,0,0,13.904551737132277,0.0,1.0
1624705693.46875,0,0,14.997448109829053,0.0,1.0
1624705693.9375,0,0,0.0,0.0,1.0
1624705694.40625,0,0,-2.8722429776165463,0.0,1.0
1624705694.875,0,0,13.706269323537521,0.0,1.0
1624705695.34375,0,0,11.125716941556094,0.0,1.0
1624705695.8125,0,0,38.11738445781875,0.0,1.0
1624705696.28125,0,0,0.0,0.0,1.0
1624705696.75,0,0,23.56329340367519,0.0,1.0
1624705697.21875,0,0,0.0,0.0,1.0
1624705697.6875,0,0,16.155758539514974,0.0,1.0
1624705698.15625,0,0,7.324814577869046,0.0,1.0
1624705698.625,0,0,13.702141204633755,0.0,1.0
1624705699.09375,0,0,27.347105158816852,0.0,1.0
1624705699.5625,0,0,4.139790811855329,0.0,1.0
1624705700.03125,0,0,27.634449668487218,0.0,1.0
1624705700.5,0,0,-2.2875260058032705,0.0,1.0
1624705700.96875,0,0,13.985464454758219,0.0,1.0
1624705701.4375,0,0,4.024607380457221,0.0,1.0
1624705701.90625,0,0,31.899320129773457,0.0,1.0
1624705702.375,0,0,0.0,0.0,1.0
1624705702.84375,0,0,0.0,0.0,1.0
1624705703.3125,0,0,16.16981678673811,0.0,1.0
1624705703.78125,0,0,0.0,0.0,1.0
1624705704.25,0,0,20.82726731007124,0.0,1.0
1624705704.71875,0,0,0.0,0.0,1.0
1624705705.1875,0,0,0.0,0.0,1.0
1624705705.65625,0,0,17.36889699752822,0.0,1.0
1624705706.125,0,0,6.743901732857073,0.0,1.0
1624705706.59375,0,0,14.788642744900912,0.0,1.0
1624705707.0625,0,0,7.7085086843899155,0.0,1.0
1624705707.53125,0,0,13.26958758174194,0.0,1.0
1624705708.0,0,0,50.56466068776367,0.0,1.0
1624705708.46875,0,0,0.0,0.0,1.0
1624705708.9375,0,0,44.260734107997855,0.0,1.0
1624705709.40625,0,0,3.4508032004535223,0.0,1.0
1624705709.875,0,0,0.0,0.0,1.0
1624705710.34375,0,0,36.616194479287316,0.0,1.0
1624705710.8125,0,0,-2.0001801110004522,0.0,1.0
1624705711.28125,0,0,22.454151920757706,0.0,1.0
1624705711.75,0,0,0.0,0.0,1.0
1624705712.21875,0,0,45.18871577374035,0.0,1.0
1624705712.6875,0,0,0.0,0.0,1.0
1624705713.15625,0,0,21.756385361282323,0.0,1.0
1624705713.625,0,0,0.0,0.0,1.0
1624705714.09375,0,0,27.95863335056142,0.0,1.0
1624705714.5625,0,0,27.378215539512023,0.0,1.0
1624705715.03125,0,0,16.698044947016783,0.0,1.0
1624705715.5,0,0,14.258546271055758,0.0,1.0
1624705715.96875,0,0,28.470838738340134,0.0,1.0
1624705716.4375,0,0,13.335035120435386,0.0,1.0
1624705716.90625,0,0,47.87376625971014,0.0,1.0
1624705717.375,0,0,20.300997452844605,0.0,1.0
1624705717.84375,0,0,25.783146833539302,0.0,1.0
1624705718.3125,0,0,0.0,0.0,1.0
1624705718.78125,0,0,20.645987621837143,0.0,1.0
1624705719.25,0,0,14.395634460710431,0.0,1.0
1624705719.71875,0,0,0.0,0.0,1.0
1624705720.1875,0,0,32.1325553660898,0.0,1.0
1624705720.65625,0,0,0.0,0.0,1.0
1624705721.125,0,0,11.346199426746955,0.0,1.0
1624705721.59375,0,0,0.0,0.0,1.0
1624705722.0625,0,0,39.77848274540217,0.0,1.0
1624705722.53125,0,0,21.867414326846262,0.0,1.0
1624705723.0,0,0,0.0,0.0,1.0
1624705723.46875,0,0,36.086582447795344,0.0,1.0
1624705723.9375,0,0,23.726311735473743,0.0,1.0
1624705724.40625,0,0,22.128653030687506,0.0,1.0
1624705724.875,0,0,0.0,0.0,1.0
1624705725.34375,0,0,23.822385508580112,0.0,1.0
1624705725.8125,0,0,12.497265362469532,0.0,1.0
1624705726.28125,0,0,11.530106200924418,0.0,1.0
1624705726.75,0,0,23.61847199499803,0.0,1.0
1624705727.21875,0,0,18.754482004680057,0.0,1.0
1624705727.6875,0,0,27.744705787518022,0.0,1.0
1624705728.15625,0,0,14.161576745766698,0.0,1.0
1624705728.625,0,0,20.308652628003212,0.0,1.0
1624705729.09375,0,0,0.0,0.0,1.0
1624705729.5625,0,0,25.48106581306599,0.0,1.0
1624705730.03125,0,0,0.0,0.0,1.0
1624705730.5,0,0,22.10032128673323,0.0,1.0
1624705730.96875,0,0,0.0,0.0,1.0
1624705731.4375,0,0,13.060712508257906,0.0,1.0
1624705731.90625,0,0,70.97364687586074,0.0,1.0
1624705732.375,0,0,-7.066472113236055,0.0,1.0
1624705732.84375,0,0,35.71989251578299,0.0,1.0
1624705733.3125,0,0,0.0,0.0,1.0
1624705733.78125,0,0,43.390933462510716,0.0,1.0
1624705734.25,0,0,0.0,0.0,1.0
1624705734.71875,0,0,12.517253470148693,0.0,1.0
1624705735.1875,0,0,15.378021935408421,0.0,1.0
1624705735.65625,0,0,0.0,0.0,1.0
1624705736.125,0,0,17.486202842660308,0.0,1.0
1624705736.59375,0,0,0.0,0.0,1.0
1624705737.0625,0,0,15.272540665008309,0.0,1.0
1624705737.53125,0,0,0.0,0.0,1.0
1624705738.0,0,0,11.283713412021024,0.0,1.0
1624705738.46875,0,0,0.0,0.0,1.0
1624705738.9375,0,0,16.852371969314543,0.0,1.0
1624705739.40625,0,0,2.4392668053758895,0.0,1.0
1624705739.875,0,0,0.0,0.0,1.0
1624705740.34375,0,0,0.0,0.0,1.0
1624705740.8125,0,0,71.55041641977375,0.0,1.0
1624705741.28125,0,0,0.0,0.0,1.0
1624705741.75,0,0,135.61465295825397,0.0,1.0
1624705742.21875,0,0,-40.975286863054976,0.0,1.0
1624705742.6875,0,0,0.0,0.0,1.0
1624705743.15625,0,0,106.24935857642942,0.0,1.0
1624705743.625,0,0,116.08662858277886,0.0,1.0
1624705744.09375,0,0,58.26972537213866,0.0,1.0
1624705744.5625,0,0,113.79798552883385,0.0,1.0
1624705745.03125,0,0,0.0,0.0,1.0
1624705745.5,0,0,58.626206555300065,0.0,1.0
1624705745.96875,0,0,43.139363333966216,0.0,1.0
1624705746.4375,0,0,151.06932084783463,0.0,1.0
1624705746.90625,0,0,-13.42102504786135,0.0,2.0
1624705747.375,0,0,-58.646634901140594,0.0,2.0
1624705747.84375,0,0,-9.065510971441613,0.0,2.0
1624705748.3125,0,0,115.4812725424059,0.0,2.0
1624705748.78125,0,0,0.0,0.0,2.0
1624705749.25,0,0,155.99083176848188,0.0,2.0
1624705749.71875,0,0,177.24194582636284,0.0,2.0
1624705750.1875,0,0,183.83763254459078,0.0,2.0
1624705750.65625,0,0,192.9557661475332,0.0,2.0
1624705751.125,0,0,0.0,0.0,2.0
1624705751.59375,0,0,224.67549784644848,0.0,2.0
1624705752.0625,0,0,0.0,0.0,2.0
1624705752.53125,0,0,101.02701950812634,0.0,2.0
1624705753.0,0,0,0.0,0.0,2.0
1624705753.46875,0,0,136.4205313289114,0.0,2.0
1624705753.9375,0,0,0.0,0.0,2.0
1624705754.40625,0,0,-12.254144096254441,0.0,2.0
1624705754.875,0,0,0.0,0.0,2.0
1624705755.34375,0,0,27.910646901975696,0.0,2.0
1624705755.8125,0,0,14.800660868287832,0.0,2.0
1624705756.28125,0,0,0.0,0.0,2.0
1624705756.75,0,0,57.18889499843597,0.0,2.0
1624705757.21875,0,0,0.0,0.0,2.0
1624705757.6875,0,0,86.09505058673228,0.0,2.0
1624705758.15625,0,0,47.31907975609341,0.0,2.0
1624705758.625,0,0,-14.674447765473468,0.0,2.0
1624705759.09375,0,0,0.0,0.0,2.0
1624705759.5625,0,0,301.2073046122146,0.0,2.0
1624705760.03125,0,0,-106.24664704595406,0.0,2.0
1624705760.5,0,0,176.64929087182912,0.0,2.0
1624705760.96875,0,0,-2.215666694079439,0.0,2.0
1624705761.4375,0,0,0.0,0.0,2.0
1624705761.90625,0,0,0.0,0.0,2.0
1624705762.375,0,0,19.398237048757068,0.0,2.0
1624705762.84375,0,0,0.0,0.0,2.0
1624705763.3125,0,0,8.786551516750936,0.0,2.0
1624705763.78125,0,0,9.806765876886521,0.0,2.0
1624705764.25,0,0,0.0,0.0,2.0
1624705764.71875,0,0,8.874289056851493,0.0,2.0
1624705765.1875,0,0,0.0,0.0,2.0
1624705765.65625,0,0,22.87315879534733,0.0,2.0
1624705766.125,0,0,0.0,0.0,2.0
1624705766.59375,0,0,53.67542549121804,0.0,2.0
1624705767.0625,0,0,191.7426348665348,0.0,2.0
1624705767.53125,0,0,0.0,0.0,2.0
1624705768.0,0,0,0.0,0.0,2.0
1624705768.46875,0,0,111.3369505823614,0.0,2.0
1624705768.9375,0,0,71.92379382083632,0.0,2.0
1624705769.40625,0,0,78.77064049257044,0.0,2.0
1624705769.875,0,0,45.82330296080794,0.0,2.0
1624705770.34375,0,0,0.0,0.0,2.0
1624705770.8125,0,0,80.49354118224116,0.0,2.0
1624705771.28125,0,0,0.0,0.0,2.0
1624705771.75,0,0,0.0,0.0,2.0
1624705772.21875,0,0,0.0,0.0,2.0
1624705772.6875,0,0,24.87228997043853,0.0,2.0
1624705773.15625,0,0,0.0,0.0,2.0
1624705773.625,0,0,176.5804016511424,0.0,2.0
1624705774.09375,0,0,0.0,0.0,2.0
1624705774.5625,0,0,2.1690998287856234,0.0,2.0
1624705775.03125,0,0,2.6249208617523845,0.0,2.0
1624705775.5,0,0,19.437179601997276,0.0,2.0
1624705775.96875,0,0,0.0,0.0,2.0
1624705776.4375,0,0,-3.3446077873896627,0.0,2.0
1624705776.90625,0,0,0.0,0.0,2.0
1624705777.375,0,0,91.98868467500972,0.0,2.0
1624705777.84375,0,0,0.0,0.0,2.0
1624705778.3125,0,0,0.0,0.0,2.0
1624705778.78125,0,0,0.0,0.0,2.0
1624705779.25,0,0,-9.080248921365465,0.0,2.0
1624705779.71875,0,0,24.528095696479525,0.0,2.0
1624705780.1875,0,0,166.46164041123197,0.0,2.0
1624705780.65625,0,0,145.00781729976424,0.0,2.0
1624705781.125,0,0,0.0,0.0,2.0
1624705781.59375,0,0,2.278981184913595,0.0,2.0
1624705782.0625,0,0,66.84893360924023,0.0,2.0
1624705782.53125,0,0,-73.6726924485513,0.0,2.0
1624705783.0,0,0,186.8688645156603,0.0,2.0
1624705783.46875,0,0,235.80817974958785,0.0,2.0
1624705783.9375,0,0,117.42645205194142,0.0,2.0
1624705784.40625,0,0,240.11111045470133,0.0,2.0
1624705784.875,0,0,106.40497810693809,0.0,2.0
1624705785.34375,0,0,103.66929661407413,0.0,2.0
1624705785.8125,0,0,120.1264696106413,0.0,2.0
1624705786.28125,0,0,11.702137578455243,0.0,2.0
1624705786.75,0,0,-24.204409490353633,0.0,2.0
1624705787.21875,0,0,40.25231808404929,0.0,2.0
1624705787.6875,0,0,52.68457351719401,0.0,2.0
1624705788.15625,0,0,56.42395488052056,0.0,2.0
1624705788.625,0,0,144.85627007268567,0.0,2.0
1624705789.09375,0,0,0.0,0.0,2.0
1624705789.5625,0,0,17.40813487770199,0.0,2.0
1624705790.03125,0,0,38.56385164883892,0.0,2.0
1624705790.5,0,0,-11.426653402228892,0.0,2.0
1624705790.96875,0,0,57.89313248074786,0.0,2.0
1624705791.4375,0,0,35.37088295923143,0.0,2.0
1624705791.90625,0,0,28.067960400838356,0.0,2.0
1624705792.375,0,0,19.90445748947411,0.0,2.0
1624705792.84375,0,0,0.0,0.0,2.0
1624705793.3125,0,0,28.972055262918506,0.0,2.0
1624705793.78125,0,0,0.0,0.0,2.0
1624705794.25,0,0,21.16997808237742,0.0,2.0
1624705794.71875,0,0,0.0,0.0,2.0
1624705795.1875,0,0,43.96831059685262,0.0,2.0
1624705795.65625,0,0,0.0,0.0,2.0
1624705796.125,0,0,26.452625944490126,0.0,2.0
1624705796.59375,0,0,31.459637976344926,0.0,2.0
1624705797.0625,0,0,0.0,0.0,2.0
1624705797.53125,0,0,25.995027330432084,0.0,2.0
1624705798.0,0,0,0.0,0.0,2.0
1624705798.46875,0,0,53.89278196070663,0.0,2.0
1624705798.9375,0,0,0.0,0.0,2.0
1624705799.40625,0,0,72.2899390640523,0.0,2.0
1624705799.875,0,0,9.345066373280806,0.0,2.0
1624705800.34375,0,0,314.3196682304038,0.0,2.0
1624705800.8125,0,0,0.0,0.0,2.0
1624705801.28125,0,0,106.59596451856659,0.0,2.0
1624705801.75,0,0,0.0,0.0,2.0
1624705802.21875,0,0,167.12994590422562,0.0,2.0
1624705802.6875,0,0,0.0,0.0,2.0
1624705803.15625,0,0,27.36495235778648,0.0,2.0
1624705803.625,0,0,0.0,0.0,2.0
1624705804.09375,0,0,45.70459971054137,0.0,2.0
1624705804.5625,0,0,0.0,0.0,2.0
1624705805.03125,0,0,23.784260825394398,0.0,2.0
1624705805.5,0,0,0.0,0.0,2.0
1624705805.96875,0,0,36.6899821525214,0.0,2.0
1624705806.4375,0,0,0.0,0.0,2.0
1624705806.90625,0,0,20.616171756706084,0.0,2.0
1624705807.375,0,0,0.0,0.0,2.0
1624705807.84375,0,0,0.0,0.0,2.0
1624705808.3125,0,0,75.30126427669707,0.0,2.0
1624705808.78125,0,0,0.0,0.0,2.0
1624705809.25,0,0,6.708825190814795,0.0,2.0
1624705809.71875,0,0,0.0,0.0,2.0
1624705810.1875,0,0,72.21468375411825,0.0,2.0
1624705810.65625,0,0,0.0,0.0,2.0
1624705811.125,0,0,256.0504877981423,0.0,2.0
1624705811.59375,0,0,0.0,0.0,2.0
1624705812.0625,0,0,230.2599792641268,0.0,2.0
1624705812.53125,0,0,33.57670631308586,0.0,2.0
1624705813.0,0,0,239.42743734119202,0.0,2.0
1624705813.46875,0,0,-11.613554143680835,0.0,2.0
1624705813.9375,0,0,0.0,0.0,2.0
1624705814.40625,0,0,11.840726667308635,0.0,2.0
1624705814.875,0,0,-20.315883236444673,0.0,2.0
1624705815.34375,0,0,25.197816709528542,0.0,2.0
1624705815.8125,0,0,18.568827997706897,0.0,2.0
1624705816.28125,0,0,54.31867412946756,0.0,2.0
1624705816.75,0,0,10.899116818609805,0.0,2.0
1624705817.21875,0,0,12.081730836441563,0.0,2.0
1624705817.6875,0,0,29.5040679967154,0.0,2.0
1624705818.15625,0,0,18.036682935130237,0.0,2.0
1624705818.625,0,0,0.3544642994657184,0.0,2.0
1624705819.09375,0,0,8.86013448957801,0.0,2.0
1624705819.5625,0,0,21.98683144350418,0.0,2.0
1624705820.03125,0,0,0.0,0.0,2.0
1624705820.5,0,0,18.31841118995253,0.0,2.0
1624705820.96875,0,0,0.0,0.0,2.0
1624705821.4375,0,0,20.606295794000076,0.0,2.0
1624705821.90625,0,0,0.0,0.0,2.0
1624705822.375,0,0,17.68953159730373,0.0,2.0
1624705822.84375,0,0,0.0,0.0,2.0
1624705823.3125,0,0,0.0,0.0,2.0
1624705823.78125,0,0,12.462684787768644,0.0,2.0
1624705824.25,0,0,0.0,0.0,2.0
1624705824.71875,0,0,13.436820202110917,0.0,2.0
1624705825.1875,0,0,0.0,0.0,2.0
1624705825.65625,0,0,13.136198052010666,0.0,2.0
1624705826.125,0,0,0.0,0.0,2.0
1624705826.59375,0,0,15.475882429532458,0.0,2.0
1624705827.0625,0,0,0.0,0.0,2.0
1624705827.53125,0,0,16.73021346140102,0.0,2.0
1624705828.0,0,0,0.0,0.0,2.0
1624705828.46875,0,0,20.933147569067508,0.0,2.0
1624705828.9375,0,0,0.0,0.0,2.0
1624705829.40625,0,0,14.379892393480972,0.0,2.0
1624705829.875,0,0,17.640625764913537,0.0,2.0
1624705830.34375,0,0,0.0,0.0,2.0
1624705830.8125,0,0,21.100930064190276,0.0,2.0
1624705831.28125,0,0,0.0,0.0,2.0
1624705831.75,0,0,101.92876150077724,0.0,2.0
1624705832.21875,0,0,0.0,0.0,2.0
1624705832.6875,0,0,39.30325057406303,0.0,2.0
1624705833.15625,0,0,81.17426660237138,0.0,2.0
1624705833.625,0,0,67.97472862377194,0.0,2.0
1624705834.09375,0,0,71.14070207191052,0.0,2.0
1624705834.5625,0,0,0.0,0.0,2.0
1624705835.03125,0,0,12.490280824435024,0.0,2.0
1624705835.5,0,0,0.0,0.0,2.0
1624705835.96875,0,0,21.204261557337627,0.0,2.0
1624705836.4375,0,0,22.82323407933756,0.0,2.0
1624705836.90625,0,0,0.0,0.0,2.0
1624705837.375,0,0,21.666866966960715,0.0,2.0
1624705837.84375,0,0,0.0,0.0,2.0
1624705838.3125,0,0,17.539727686669547,0.0,2.0
1624705838.78125,0,0,0.0,0.0,2.0
1624705839.25,0,0,23.867162568005742,0.0,2.0
1624705839.71875,0,0,13.808132452165767,0.0,2.0
1624705840.1875,0,0,17.21356684391824,0.0,2.0
1624705840.65625,0,0,20.68852285252411,0.0,2.0
1624705841.125,0,0,0.0,0.0,2.0
1624705841.59375,0,0,16.63810599928615,0.0,2.0
1624705842.0625,0,0,0.0,0.0,2.0
1624705842.53125,0,0,16.645844162736108,0.0,2.0
1624705843.0,0,0,18.155294183213204,0.0,2.0
1624705843.46875,0,0,13.7894014665169,0.0,2.0
1624705843.9375,0,0,17.559935982724795,0.0,2.0
1624705844.40625,0,0,0.0,0.0,2.0
1624705844.875,0,0,23.831083263966352,0.0,2.0
1624705845.34375,0,0,0.0,0.0,2.0
1624705845.8125,0,0,28.608489890322375,0.0,2.0
1624705846.28125,0,0,0.0,0.0,2.0
1624705846.75,0,0,17.91079536015117,0.0,2.0
1624705847.21875,0,0,0.0,0.0,2.0
1624705847.6875,0,0,29.812570255070742,0.0,2.0
1624705848.15625,0,0,9.817717541317009,0.0,2.0
1624705848.625,0,0,21.84285435986785,0.0,2.0
1624705849.09375,0,0,17.74067011533879,0.0,2.0
1624705849.5625,0,0,19.158322430988843,0.0,2.0
1624705850.03125,0,0,0.0,0.0,2.0
1624705850.5,0,0,16.60542323343922,0.0,2.0
1624705850.96875,0,0,30.08994539744643,0.0,2.0
1624705851.4375,0,0,-17.5186275934559,0.0,2.0
1624705851.90625,0,0,26.83518111550271,0.0,2.0
1624705852.375,0,0,0.0,0.0,2.0
1624705852.84375,0,0,18.195724209665766,0.0,2.0
1624705853.3125,0,0,0.0,0.0,2.0
1624705853.78125,0,0,20.442331975804148,0.0,2.0
1624705854.25,0,0,0.0,0.0,2.0
1624705854.71875,0,0,26.090074705439648,0.0,2.0
1624705855.1875,0,0,5.782689776759029,0.0,2.0
1624705855.65625,0,0,13.975833636998397,0.0,2.0
1624705856.125,0,0,17.985952775611697,0.0,2.0
1624705856.59375,0,0,0.0,0.0,2.0
1624705857.0625,0,0,15.003612033180586,0.0,2.0
1624705857.53125,0,0,0.0,0.0,2.0
1624705858.0,0,0,16.71777438754286,0.0,2.0
1624705858.46875,0,0,0.0,0.0,2.0
1624705858.9375,0,0,16.868345454960657,0.0,2.0
1624705859.40625,0,0,0.0,0.0,2.0
1624705859.875,0,0,16.501890500841977,0.0,2.0
1624705860.34375,0,0,14.616378184371214,0.0,2.0
1624705860.8125,0,0,0.0,0.0,2.0
1624705861.28125,0,0,25.54140564451057,0.0,2.0
1624705861.75,0,0,0.0,0.0,2.0
1624705862.21875,0,0,17.621771539298386,0.0,2.0
1624705862.6875,0,0,0.0,0.0,2.0
1624705863.15625,0,0,15.794833651660406,0.0,2.0
1624705863.625,0,0,0.0,0.0,2.0
1624705864.09375,0,0,22.076852079328862,0.0,2.0
1624705864.5625,0,0,0.0,0.0,2.0
1624705865.03125,0,0,0.0,0.0,2.0
1624705865.5,0,0,80.46306098494456,0.0,2.0
1624705865.96875,0,0,22.8001105538953,0.0,2.0
1624705866.4375,0,0,255.1774801024329,0.0,2.0
1624705866.90625,0,0,0.0,0.0,2.0
1624705867.375,0,0,95.3118200015385,0.0,2.0
1624705867.84375,0,0,37.13973158655148,0.0,2.0
1624705868.3125,0,0,0.0,0.0,2.0
1624705868.78125,0,0,24.15576885832628,0.0,2.0
1624705869.25,0,0,45.45063983832217,0.0,2.0
1624705869.71875,0,0,0.0,0.0,2.0
1624705870.1875,0,0,32.456844091965586,0.0,2.0
1624705870.65625,0,0,0.0,0.0,2.0
1624705871.125,0,0,21.32844642924409,0.0,2.0
1624705871.59375,0,0,0.0,0.0,2.0
1624705872.0625,0,0,20.581552147311648,0.0,2.0
1624705872.53125,0,0,0.0,0.0,2.0
1624705873.0,0,0,19.853326071857094,0.0,2.0
1624705873.46875,0,0,0.0,0.0,2.0
1624705873.9375,0,0,23.910929961019605,0.0,2.0
1624705874.40625,0,0,0.0,0.0,2.0
1624705874.875,0,0,16.58942669365333,0.0,2.0
1624705875.34375,0,0,0.0,0.0,2.0
1624705875.8125,0,0,0.0,0.0,2.0
1624705876.28125,0,0,62.293331852422305,0.0,2.0
1624705876.75,0,0,0.0,0.0,2.0
1624705877.21875,0,0,34.23583057825784,0.0,2.0
1624705877.6875,0,0,0.0,0.0,2.0
1624705878.15625,0,0,15.781384046701818,0.0,2.0
1624705878.625,0,0,0.0,0.0,2.0
1624705879.09375,0,0,26.154189986370408,0.0,2.0
1624705879.5625,0,0,0.0,0.0,2.0
1624705880.03125,0,0,21.43912573818367,0.0,2.0
1624705880.5,0,0,0.0,0.0,2.0
1624705880.96875,0,0,20.522970065053,0.0,2.0
1624705881.4375,0,0,0.0,0.0,2.0
1624705881.90625,0,0,24.24440888066237,0.0,2.0
1624705882.375,0,0,0.0,0.0,2.0
1624705882.84375,0,0,22.944640580011743,0.0,2.0
1624705883.3125,0,0,0.0,0.0,2.0
1624705883.78125,0,0,18.800047104566428,0.0,2.0
1624705884.25,0,0,0.0,0.0,2.0
1624705884.71875,0,0,23.193134121609347,0.0,2.0
1624705885.1875,0,0,0.0,0.0,2.0
1624705885.65625,0,0,20.850563148801125,0.0,2.0
1624705886.125,0,0,16.28485194164197,0.0,2.0
1624705886.59375,0,0,18.120865145651,0.0,2.0
1624705887.0625,0,0,13.924959086618248,0.0,2.0
1624705887.53125,0,0,14.563109383492419,0.0,2.0
1624705888.0,0,0,39.835558644379994,0.0,2.0
1624705888.46875,0,0,0.0,0.0,2.0
1624705888.9375,0,0,21.923525103856175,0.0,2.0
1624705889.40625,0,0,0.0,0.0,2.0
1624705889.875,0,0,26.514421460011913,0.0,2.0
1624705890.34375,0,0,0.0,0.0,2.0
1624705890.8125,0,0,18.89865730198776,0.0,2.0
1624705891.28125,0,0,0.0,0.0,2.0
1624705891.75,0,0,42.319587220850764,0.0,2.0
1624705892.21875,0,0,0.0,0.0,2.0
1624705892.6875,0,0,16.363236344804164,0.0,2.0
1624705893.15625,0,0,0.0,0.0,2.0
1624705893.625,0,0,21.517547783629475,0.0,2.0
1624705894.09375,0,0,20.71839101522158,0.0,2.0
1624705894.5625,0,0,0.0,0.0,2.0
1624705895.03125,0,0,0.0,0.0,2.0
1624705895.5,0,0,18.20765048244405,0.0,2.0
1624705895.96875,0,0,24.48416150267055,0.0,2.0
1624705896.4375,0,0,0.0,0.0,2.0
1624705896.90625,0,0,25.340081782373563,0.0,2.0
1624705897.375,0,0,0.0,0.0,2.0
1624705897.84375,0,0,30.195296735730082,0.0,2.0
1624705898.3125,0,0,14.260550808272896,0.0,2.0
1624705898.78125,0,0,195.02036352891238,0.0,2.0
1624705899.25,0,0,0.0,0.0,2.0
1624705899.71875,0,0,28.688230420378424,0.0,2.0
1624705900.1875,0,0,0.0,0.0,2.0
1624705900.65625,0,0,35.99990947668163,0.0,2.0
1624705901.125,0,0,0.0,0.0,2.0
1624705901.59375,0,0,27.993537815749736,0.0,2.0
1624705902.0625,0,0,0.0,0.0,2.0
1624705902.53125,0,0,28.17148174474126,0.0,2.0
1624705903.0,0,0,0.0,0.0,2.0
1624705903.46875,0,0,24.478497010164233,0.0,2.0
1624705903.9375,0,0,14.128935285928426,0.0,2.0
1624705904.40625,0,0,0.0,0.0,2.0
1624705904.875,0,0,22.07236757336416,0.0,2.0
1624705905.34375,0,0,0.0,0.0,2.0
1624705905.8125,0,0,23.796065773260434,0.0,2.0
1624705906.28125,0,0,0.0,0.0,2.0
1624705906.75,0,0,0.0,0.0,2.0
1624705907.21875,0,0,21.374980770961262,0.0,2.0
1624705907.6875,0,0,0.0,0.0,2.0
1624705908.15625,0,0,22.63275667291252,0.0,2.0
1624705908.625,0,0,0.0,0.0,2.0
1624705909.09375,0,0,17.14656534270026,0.0,2.0
1624705909.5625,0,0,9.54637384554776,0.0,2.0
1624705910.03125,0,0,12.725508385244526,0.0,2.0
1624705910.5,0,0,44.59308527682345,0.0,2.0
1624705910.96875,0,0,-25.454003153228957,0.0,2.0
1624705911.4375,0,0,0.0,0.0,2.0
1624705911.90625,0,0,0.0,0.0,2.0
1624705912.375,0,0,14.456536410759272,0.0,2.0
1624705912.84375,0,0,0.0,0.0,2.0
1624705913.3125,0,0,18.840764483583612,0.0,2.0
1624705913.78125,0,0,14.9383631614669,0.0,2.0
1624705914.25,0,0,15.472819039598848,0.0,2.0
1624705914.71875,0,0,6.860325654794391,0.0,2.0
1624705915.1875,0,0,13.947494133299019,0.0,2.0
1624705915.65625,0,0,21.249746105328008,0.0,2.0
1624705916.125,0,0,0.0,0.0,2.0
1624705916.59375,0,0,-3.4328672727505256,0.0,2.0
1624705917.0625,0,0,42.30464982914204,0.0,2.0
1624705917.53125,0,0,19.867109040746353,0.0,2.0
1624705918.0,0,0,298.85779136525605,0.0,2.0
1624705918.46875,0,0,-17.13298304769784,0.0,2.0
1624705918.9375,0,0,56.25238886184369,0.0,2.0
1624705919.40625,0,0,0.0,0.0,2.0
1624705919.875,0,0,-217.45658291744869,0.0,2.0
1624705920.34375,0,0,0.0,0.0,2.0
1624705920.8125,0,0,0.0,0.0,2.0
1624705921.28125,0,0,0.0,0.0,2.0
1624705921.75,0,0,242.76513543593822,0.0,2.0
1624705922.21875,0,0,0.0,0.0,2.0
1624705922.6875,0,0,0.0,0.0,2.0
1624705923.15625,0,0,63.35516027542492,0.0,2.0
1624705923.625,0,0,26.472295484995993,0.0,2.0
1624705924.09375,0,0,0.0,0.0,2.0
1624705924.5625,0,0,28.16900058825951,0.0,2.0
1624705925.03125,0,0,20.990318589428647,0.0,2.0
1624705925.5,0,0,0.0,0.0,2.0
1624705925.96875,0,0,18.298419583718935,0.0,2.0
1624705926.4375,0,0,0.0,0.0,2.0
1624705926.90625,0,0,18.17208468253987,0.0,2.0
1624705927.375,0,0,16.567331676820608,0.0,2.0
1624705927.84375,0,0,0.0,0.0,2.0
1624705928.3125,0,0,22.478518278768906,0.0,2.0
1624705928.78125,0,0,10.035363247018912,0.0,2.0
1624705929.25,0,0,4.096214046659131,0.0,2.0
1624705929.71875,0,0,46.56681026774996,0.0,2.0
1624705930.1875,0,0,0.0,0.0,2.0
1624705930.65625,0,0,16.000868919529925,0.0,2.0
1624705931.125,0,0,294.0910123754163,0.0,3.0
1624705931.59375,0,0,0.0,0.0,3.0
1624705932.0625,0,0,-7.154925110764188,0.0,3.0
1624705932.53125,0,0,0.0,0.0,3.0
1624705933.0,0,0,79.87269221487553,0.0,3.0
1624705933.46875,0,0,123.12828946408936,0.0,3.0
1624705933.9375,0,0,54.05029522135212,0.0,3.0
1624705934.40625,0,0,0.0,0.0,3.0
1624705934.875,0,0,128.59151146099154,0.0,3.0
1624705935.34375,0,0,296.52956352670833,0.0,3.0
1624705935.8125,0,0,0.0,0.0,3.0
1624705936.28125,0,0,387.5395761026157,0.0,3.0
1624705936.75,0,0,205.6815588328652,0.0,3.0
1624705937.21875,0,0,147.98191545641822,0.0,3.0
1624705937.6875,0,0,-65.55614790602999,0.0,3.0
1624705938.15625,0,0,0.0,0.0,3.0
1624705938.625,0,0,159.14365218958747,0.0,3.0
1624705939.09375,0,0,-15.23290882877146,0.0,3.0
1624705939.5625,0,0,0.9313457964411891,0.0,3.0
1624705940.03125,0,0,25.78141375108506,0.0,3.0
1624705940.5,0,0,0.0,0.0,3.0
1624705940.96875,0,0,32.82891725667712,0.0,3.0
1624705941.4375,0,0,8.479680906783035,0.0,3.0
1624705941.90625,0,0,4.057301655154671,0.0,3.0
1624705942.375,0,0,181.93483337814388,0.0,3.0
1624705942.84375,0,0,-9.654886136708916,0.0,3.0
1624705943.3125,0,0,157.6950071684059,0.0,3.0
1624705943.78125,0,0,190.0606103720927,0.0,3.0
1624705944.25,0,0,-73.4963709739595,0.0,3.0
1624705944.71875,0,0,104.82491538350597,0.0,3.0
1624705945.1875,0,0,145.10028063009494,0.0,3.0
1624705945.65625,0,0,0.0,0.0,3.0
1624705946.125,0,0,20.829722205885403,0.0,3.0
1624705946.59375,0,0,11.809209114965375,0.0,3.0
1624705947.0625,0,0,80.59395795980467,0.0,3.0
1624705947.53125,0,0,89.13539497638313,0.0,3.0
1624705948.0,0,0,19.655805960842923,0.0,3.0
1624705948.46875,0,0,44.223983545794454,0.0,3.0
1624705948.9375,0,0,0.0,0.0,3.0
1624705949.40625,0,0,230.77799217919014,0.0,3.0
1624705949.875,0,0,0.0,0.0,3.0
1624705950.34375,0,0,54.4002717063948,0.0,3.0
1624705950.8125,0,0,22.863692303975633,0.0,3.0
1624705951.28125,0,0,13.113718904428293,0.0,3.0
1624705951.75,0,0,0.0,0.0,3.0
1624705952.21875,0,0,15.885548650470488,0.0,3.0
1624705952.6875,0,0,-7.852121778561418,0.0,3.0
1624705953.15625,0,0,15.116847129411001,0.0,3.0
1624705953.625,0,0,8.989389323256521,0.0,3.0
1624705954.09375,0,0,3.1968050226204725,0.0,3.0
1624705954.5625,0,0,7.722503045063346,0.0,3.0
1624705955.03125,0,0,0.0,0.0,3.0
1624705955.5,0,0,18.08728964275907,0.0,3.0
1624705955.96875,0,0,0.0,0.0,3.0
1624705956.4375,0,0,-6.743240001700014,0.0,3.0
1624705956.90625,0,0,0.0,0.0,3.0
1624705957.375,0,0,47.2619840006379,0.0,3.0
1624705957.84375,0,0,-57.008819264263124,0.0,3.0
1624705958.3125,0,0,4.620509304290902,0.0,3.0
1624705958.78125,0,0,629.083847898913,0.0,3.0
1624705959.25,0,0,0.0,0.0,3.0
1624705959.71875,0,0,0.0,0.0,3.0
1624705960.1875,0,0,294.41915214090875,0.0,3.0
1624705960.65625,0,0,0.0,0.0,3.0
1624705961.125,0,0,4.216178694393672,0.0,3.0
1624705961.59375,0,0,12.223787739119432,0.0,3.0
1624705962.0625,0,0,35.548059209288866,0.0,3.0
1624705962.53125,0,0,10.661291495967053,0.0,3.0
1624705963.0,0,0,16.158857681113073,0.0,3.0
1624705963.46875,0,0,0.0,0.0,3.0
1624705963.9375,0,0,36.01903338185267,0.0,3.0
1624705964.40625,0,0,42.54485251483465,0.0,3.0
1624705964.875,0,0,0.0,0.0,3.0
1624705965.34375,0,0,28.29619986452774,0.0,3.0
1624705965.8125,0,0,99.85109354748838,0.0,3.0
1624705966.28125,0,0,61.49770721313868,0.0,3.0
1624705966.75,0,0,-9.535059631001557,0.0,3.0
1624705967.21875,0,0,74.08919486564183,0.0,3.0
1624705967.6875,0,0,-26.104281145029947,0.0,3.0
1624705968.15625,0,0,0.0,0.0,3.0
1624705968.625,0,0,175.36080373051973,0.0,3.0
1624705969.09375,0,0,15.85056477671755,0.0,3.0
1624705969.5625,0,0,19.89453529258643,0.0,3.0
1624705970.03125,0,0,47.498915189371296,0.0,3.0
1624705970.5,0,0,50.05810753372632,0.0,3.0
1624705970.96875,0,0,0.0,0.0,3.0
1624705971.4375,0,0,86.42841167436826,0.0,3.0
1624705971.90625,0,0,0.0,0.0,3.0
1624705972.375,0,0,67.37122898188831,0.0,3.0
1624705972.84375,0,0,17.885483572294227,0.0,3.0
1624705973.3125,0,0,-0.4780245060827895,0.0,3.0
1624705973.78125,0,0,42.74964095937271,0.0,3.0
1624705974.25,0,0,51.54393286164155,0.0,3.0
1624705974.71875,0,0,30.292271865458638,0.0,3.0
1624705975.1875,0,0,0.0,0.0,3.0
1624705975.65625,0,0,51.01465630514461,0.0,3.0
1624705976.125,0,0,0.0,0.0,3.0
1624705976.59375,0,0,96.43374086196783,0.0,3.0
1624705977.0625,0,0,90.28231062566306,0.0,3.0
1624705977.53125,0,0,0.0,0.0,3.0
1624705978.0,0,0,45.559880695413334,0.0,3.0
1624705978.46875,0,0,0.0,0.0,3.0
1624705978.9375,0,0,61.94520020435083,0.0,3.0
1624705979.40625,0,0,-4.139395444101338,0.0,3.0
1624705979.875,0,0,0.0,0.0,3.0
1624705980.34375,0,0,46.82904015597165,0.0,3.0
1624705980.8125,0,0,124.35579999677545,0.0,3.0
1624705981.28125,0,0,0.0,0.0,3.0
1624705981.75,0,0,-12.879923788647805,0.0,3.0
1624705982.21875,0,0,88.20194366531635,0.0,3.0
1624705982.6875,0,0,0.0,0.0,3.0
1624705983.15625,0,0,3.7205653055485315,0.0,3.0
1624705983.625,0,0,18.930886914972973,0.0,3.0
1624705984.09375,0,0,22.350563465911403,0.0,3.0
1624705984.5625,0,0,75.12671020032512,0.0,3.0
1624705985.03125,0,0,0.0,0.0,3.0
1624705985.5,0,0,299.2558760453401,0.0,3.0
1624705985.96875,0,0,159.09286150055598,0.0,3.0
1624705986.4375,0,0,0.0,0.0,3.0
1624705986.90625,0,0,43.96213925492751,0.0,3.0
1624705987.375,0,0,90.5847387156412,0.0,3.0
1624705987.84375,0,0,23.117411091158434,0.0,3.0
1624705988.3125,0,0,30.62772165316333,0.0,3.0
1624705988.78125,0,0,58.999537270123085,0.0,3.0
1624705989.25,0,0,47.08008089705197,0.0,3.0
1624705989.71875,0,0,12.883705287850468,0.0,3.0
1624705990.1875,0,0,80.29111571738754,0.0,3.0
1624705990.65625,0,0,186.47786639222824,0.0,3.0
1624705991.125,0,0,0.0,0.0,3.0
1624705991.59375,0,0,55.708599795984696,0.0,3.0
1624705992.0625,0,0,70.88444092372626,0.0,3.0
1624705992.53125,0,0,22.14635383726076,0.0,3.0
1624705993.0,0,0,51.420571405079166,0.0,3.0
1624705993.46875,0,0,0.0,0.0,3.0
1624705993.9375,0,0,189.80370869979842,0.0,3.0
1624705994.40625,0,0,240.66344166123193,0.0,3.0
1624705994.875,0,0,0.0,0.0,3.0
1624705995.34375,0,0,73.30393832711385,0.0,3.0
1624705995.8125,0,0,67.86188252211245,0.0,3.0
1624705996.28125,0,0,0.0,0.0,3.0
1624705996.75,0,0,124.01424132855024,0.0,3.0
1624705997.21875,0,0,60.16887202248073,0.0,3.0
1624705997.6875,0,0,0.0,0.0,3.0
1624705998.15625,0,0,58.59613381148397,0.0,3.0
1624705998.625,0,0,23.309133786865047,0.0,3.0
1624705999.09375,0,0,0.0,0.0,3.0
1624705999.5625,0,0,36.9503334232443,0.0,3.0
1624706000.03125,0,0,0.0,0.0,3.0
1624706000.5,0,0,25.536993690415123,0.0,3.0
1624706000.96875,0,0,0.0,0.0,3.0
1624706001.4375,0,0,0.0,0.0,3.0
1624706001.90625,0,0,0.0,0.0,3.0
1624706002.375,0,0,33.330050758149454,0.0,3.0
1624706002.84375,0,0,23.630327422336844,0.0,3.0
1624706003.3125,0,0,-7.608713014268076,0.0,3.0
1624706003.78125,0,0,116.33540223142056,0.0,3.0
1624706004.25,0,0,14.257144776083573,0.0,3.0
1624706004.71875,0,0,219.50815853562074,0.0,3.0
1624706005.1875,0,0,0.0,0.0,3.0
1624706005.65625,0,0,69.30640451856051,0.0,3.0
1624706006.125,0,0,49.41891991622109,0.0,3.0
1624706006.59375,0,0,0.0,0.0,3.0
1624706007.0625,0,0,11.552446710928942,0.0,3.0
1624706007.53125,0,0,0.0,0.0,3.0
1624706008.0,0,0,31.970620441251366,0.0,3.0
1624706008.46875,0,0,-2.8821253458813816,0.0,3.0
1624706008.9375,0,0,93.28337405566401,0.0,3.0
1624706009.40625,0,0,62.63681642144327,0.0,3.0
1624706009.875,0,0,-20.085105234237687,0.0,3.0
1624706010.34375,0,0,24.261977843436277,0.0,3.0
1624706010.8125,0,0,0.0,0.0,3.0
1624706011.28125,0,0,23.628327726552314,0.0,3.0
1624706011.75,0,0,12.962555481192704,0.0,3.0
1624706012.21875,0,0,74.83598640209064,0.0,3.0
1624706012.6875,0,0,-11.259980341197135,0.0,3.0
1624706013.15625,0,0,20.289563910408585,0.0,3.0
1624706013.625,0,0,60.24411705342271,0.0,3.0
1624706014.09375,0,0,-1.21406964005892,0.0,3.0
1624706014.5625,0,0,84.4860295082273,0.0,3.0
1624706015.03125,0,0,-10.32209575792585,0.0,3.0
1624706015.5,0,0,34.71323160677809,0.0,3.0
1624706015.96875,0,0,-1.337504911846686,0.0,3.0
1624706016.4375,0,0,15.483000962996531,0.0,3.0
1624706016.90625,0,0,56.848833354623984,0.0,3.0
1624706017.375,0,0,-0.7702267892141369,0.0,3.0
1624706017.84375,0,0,93.88451362151866,0.0,3.0
1624706018.3125,0,0,-53.93680067445714,0.0,3.0
1624706018.78125,0,0,77.25353903885413,0.0,3.0
1624706019.25,0,0,0.0,0.0,3.0
1624706019.71875,0,0,100.26491398971481,0.0,3.0
1624706020.1875,0,0,0.0,0.0,3.0
1624706020.65625,0,0,24.461979424247033,0.0,3.0
1624706021.125,0,0,36.583645915450646,0.0,3.0
1624706021.59375,0,0,-4.541848168694092,0.0,3.0
1624706022.0625,0,0,21.949793791220305,0.0,3.0
1624706022.53125,0,0,39.39688589207423,0.0,3.0
1624706023.0,0,0,29.852373148669198,0.0,3.0
1624706023.46875,0,0,14.737052789662803,0.0,3.0
1624706023.9375,0,0,0.0,0.0,3.0
1624706024.40625,0,0,35.79271002879767,0.0,3.0
1624706024.875,0,0,43.97013772214408,0.0,3.0
1624706025.34375,0,0,0.0,0.0,3.0
1624706025.8125,0,0,37.903492547844884,0.0,3.0
1624706026.28125,0,0,20.76481342961092,0.0,3.0
1624706026.75,0,0,-25.757521651868625,0.0,3.0
1624706027.21875,0,0,32.43256918657359,0.0,3.0
1624706027.6875,0,0,18.748304508291106,0.0,3.0
1624706028.15625,0,0,10.719911525016101,0.0,3.0
1624706028.625,0,0,0.0,0.0,3.0
1624706029.09375,0,0,37.78093184484048,0.0,3.0
1624706029.5625,0,0,-18.241451530630513,0.0,3.0
1624706030.03125,0,0,27.065334784467993,0.0,3.0
1624706030.5,0,0,10.456426607642099,0.0,3.0
1624706030.96875,0,0,8.121658800111815,0.0,3.0
1624706031.4375,0,0,36.14793299779148,0.0,3.0
1624706031.90625,0,0,0.0,0.0,3.0
1624706032.375,0,0,32.86791912932752,0.0,3.0
1624706032.84375,0,0,52.300004673310134,0.0,3.0
1624706033.3125,0,0,0.0,0.0,3.0
1624706033.78125,0,0,-3.7394559484218273,0.0,3.0
1624706034.25,0,0,6.02370285355322,0.0,3.0
1624706034.71875,0,0,53.038051960192796,0.0,3.0
1624706035.1875,0,0,-0.7016906563366215,0.0,3.0
1624706035.65625,0,0,21.414092406623016,0.0,3.0
1624706036.125,0,0,19.567342975587916,0.0,3.0
1624706036.59375,0,0,0.0,0.0,3.0
1624706037.0625,0,0,62.40495060569472,0.0,3.0
