timestamp,mean_pulse_rate,pulse_rate_std,mean_pulse_amplitude,pulse_amplitude_std,block
1624704698.03125,0,0,78.97292314365359,0.0,1.0
1624704698.5,0,0,0.0,0.0,1.0
1624704698.96875,0,0,28.419276336660225,0.0,1.0
1624704699.4375,0,0,30.257296110840237,0.0,1.0
1624704699.90625,0,0,26.375849450953492,0.0,1.0
1624704700.375,0,0,32.497897043789436,0.0,1.0
1624704700.84375,0,0,-24.953063458512904,0.0,1.0
1624704701.3125,0,0,169.81075403231458,0.0,1.0
1624704701.78125,0,0,-66.28514797635088,0.0,1.0
1624704702.25,0,0,84.94831412965175,0.0,1.0
1624704702.71875,0,0,44.145115615043,0.0,1.0
1624704703.1875,0,0,0.0,0.0,1.0
1624704703.65625,0,0,66.13356333349941,0.0,1.0
1624704704.125,0,0,0.0,0.0,1.0
1624704704.59375,0,0,95.6200146010449,0.0,1.0
1624704705.0625,0,0,262.4863714653418,0.0,1.0
1624704705.53125,0,0,0.0,0.0,1.0
1624704706.0,0,0,70.9104611626573,0.0,1.0
1624704706.46875,0,0,0.0,0.0,1.0
1624704706.9375,0,0,67.22243921454215,0.0,1.0
1624704707.40625,0,0,-31.260511002472423,0.0,1.0
1624704707.875,0,0,87.90230924855585,0.0,1.0
1624704708.34375,0,0,134.7146258445305,0.0,1.0
1624704708.8125,0,0,0.0,0.0,1.0
1624704709.28125,0,0,137.10050686824522,0.0,1.0
1624704709.75,0,0,18.023987922248004,0.0,1.0
1624704710.21875,0,0,0.0,0.0,1.0
1624704710.6875,0,0,36.86112812717966,0.0,1.0
1624704711.15625,0,0,38.3597449535084,0.0,1.0
1624704711.625,0,0,0.0,0.0,1.0
1624704712.09375,0,0,15.599264422539285,0.0,1.0
1624704712.5625,0,0,-0.911288710559648,0.0,1.0
1624704713.03125,0,0,153.5757050890862,0.0,1.0
1624704713.5,0,0,0.0,0.0,1.0
1624704713.96875,0,0,203.51177315247915,0.0,1.0
1624704714.4375,0,0,0.0,0.0,1.0
1624704714.90625,0,0,56.8460407881515,0.0,1.0
1624704715.375,0,0,147.02186579470546,0.0,1.0
1624704715.84375,0,0,61.46609181268034,0.0,1.0
1624704716.3125,0,0,50.240651271763646,0.0,1.0
1624704716.78125,0,0,146.10764460013715,0.0,1.0
1624704717.25,0,0,0.0,0.0,1.0
1624704717.71875,0,0,106.99129482448954,0.0,1.0
1624704718.1875,0,0,0.0,0.0,1.0
1624704718.65625,0,0,-71.75614295699243,0.0,1.0
1624704719.125,0,0,0.0,0.0,1.0
1624704719.59375,0,0,51.89943810336349,0.0,1.0
1624704720.0625,0,0,0.0,0.0,1.0
1624704720.53125,0,0,31.514288575617147,0.0,1.0
1624704721.0,0,0,64.84650752272549,0.0,1.0
1624704721.46875,0,0,48.36945245305238,0.0,1.0
1624704721.9375,0,0,194.29631548162044,0.0,1.0
1624704722.40625,0,0,0.0,0.0,1.0
1624704722.875,0,0,0.0,0.0,1.0
1624704723.34375,0,0,12.085868563440954,0.0,1.0
1624704723.8125,0,0,44.417599869270475,0.0,1.0
1624704724.28125,0,0,23.18141306233683,0.0,1.0
1624704724.75,0,0,0.0,0.0,1.0
1624704725.21875,0,0,31.00342474145734,0.0,1.0
1624704725.6875,0,0,24.79689073780066,0.0,1.0
1624704726.15625,0,0,0.0,0.0,1.0
1624704726.625,0,0,25.380543649308503,0.0,1.0
1624704727.09375,0,0,0.0,0.0,1.0
1624704727.5625,0,0,21.17819379292929,0.0,1.0
1624704728.03125,0,0,0.0,0.0,1.0
1624704728.5,0,0,98.40541787793595,0.0,1.0
1624704728.96875,0,0,51.447955654173285,0.0,1.0
1624704729.4375,0,0,60.020525962905765,0.0,1.0
1624704729.90625,0,0,0.0,0.0,1.0
1624704730.375,0,0,173.3744384536285,0.0,1.0
1624704730.84375,0,0,0.0,0.0,1.0
1624704731.3125,0,0,98.68444063822633,0.0,1.0
1624704731.78125,0,0,0.0,0.0,1.0
1624704732.25,0,0,76.35239856248953,0.0,1.0
1624704732.71875,0,0,138.45818001614424,0.0,1.0
1624704733.1875,0,0,15.73159097605438,0.0,1.0
1624704733.65625,0,0,0.0,0.0,1.0
1624704734.125,0,0,231.05118106376275,0.0,1.0
1624704734.59375,0,0,0.0,0.0,1.0
1624704735.0625,0,0,-13.160698070445582,0.0,1.0
1624704735.53125,0,0,0.0,0.0,1.0
1624704736.0,0,0,10.818352680958707,0.0,1.0
1624704736.46875,0,0,0.0,0.0,1.0
1624704736.9375,0,0,34.62721009067093,0.0,1.0
1624704737.40625,0,0,28.252506118572793,0.0,1.0
1624704737.875,0,0,0.0,0.0,1.0
1624704738.34375,0,0,0.0,0.0,1.0
1624704738.8125,0,0,37.465745691154744,0.0,1.0
1624704739.28125,0,0,50.47979184323222,0.0,1.0
1624704739.75,0,0,84.79521851350935,0.0,1.0
1624704740.21875,0,0,55.32080393369045,0.0,1.0
1624704740.6875,0,0,0.0,0.0,1.0
1624704741.15625,0,0,57.70295310495833,0.0,1.0
1624704741.625,0,0,96.66830869531712,0.0,1.0
1624704742.09375,0,0,53.86665664676923,0.0,1.0
1624704742.5625,0,0,92.06466266201149,0.0,1.0
1624704743.03125,0,0,0.0,0.0,1.0
1624704743.5,0,0,0.0,0.0,1.0
1624704743.96875,0,0,35.351718935158814,0.0,1.0
1624704744.4375,0,0,-12.81048157217772,0.0,1.0
1624704744.90625,0,0,0.0,0.0,1.0
1624704745.375,0,0,140.63223585848775,0.0,1.0
1624704745.84375,0,0,0.0,0.0,1.0
1624704746.3125,0,0,37.81897027088609,0.0,1.0
1624704746.78125,0,0,21.803548871742816,0.0,1.0
1624704747.25,0,0,-13.00602876590614,0.0,1.0
1624704747.71875,0,0,70.2619625050254,0.0,1.0
1624704748.1875,0,0,152.74243718781358,0.0,1.0
1624704748.65625,0,0,-67.82644027662043,0.0,1.0
1624704749.125,0,0,38.3143028427518,0.0,1.0
1624704749.59375,0,0,62.239877226042715,0.0,1.0
1624704750.0625,0,0,95.97577899175646,0.0,1.0
1624704750.53125,0,0,0.0,0.0,1.0
1624704751.0,0,0,42.547644121378674,0.0,1.0
1624704751.46875,0,0,63.29141040194941,0.0,1.0
1624704751.9375,0,0,58.2162784347166,0.0,1.0
1624704752.40625,0,0,238.99198988809033,0.0,1.0
1624704752.875,0,0,0.0,0.0,1.0
1624704753.34375,0,0,23.16312872819549,0.0,1.0
1624704753.8125,0,0,75.39613918605843,0.0,1.0
1624704754.28125,0,0,48.877319462305195,0.0,1.0
1624704754.75,0,0,93.4124125001815,0.0,1.0
1624704755.21875,0,0,19.340944160767894,0.0,1.0
1624704755.6875,0,0,138.0204549034817,0.0,1.0
1624704756.15625,0,0,236.83490129749086,0.0,1.0
1624704756.625,0,0,0.0,0.0,1.0
1624704757.09375,0,0,41.22207361730494,0.0,1.0
1624704757.5625,0,0,5.794285617344885,0.0,1.0
1624704758.03125,0,0,63.47603774425272,0.0,1.0
1624704758.5,0,0,115.99078602499928,0.0,1.0
1624704758.96875,0,0,92.09290862783848,0.0,1.0
1624704759.4375,0,0,89.9554069683672,0.0,1.0
1624704759.90625,0,0,14.800067783743323,0.0,1.0
1624704760.375,0,0,0.0,0.0,1.0
1624704760.84375,0,0,14.45252108836968,0.0,1.0
1624704761.3125,0,0,39.52041641355877,0.0,1.0
1624704761.78125,0,0,12.386595118833114,0.0,1.0
1624704762.25,0,0,0.0,0.0,1.0
1624704762.71875,0,0,0.0,0.0,1.0
1624704763.1875,0,0,27.213828308719762,0.0,1.0
1624704763.65625,0,0,0.0,0.0,1.0
1624704764.125,0,0,31.1344770545843,0.0,1.0
1624704764.59375,0,0,28.48913926890501,0.0,1.0
1624704765.0625,0,0,0.0,0.0,1.0
1624704765.53125,0,0,21.781211311141995,0.0,1.0
1624704766.0,0,0,22.387756869651724,0.0,1.0
1624704766.46875,0,0,24.09937547520344,0.0,1.0
1624704766.9375,0,0,0.0,0.0,1.0
1624704767.40625,0,0,105.72015453816329,0.0,1.0
1624704767.875,0,0,0.0,0.0,1.0
1624704768.34375,0,0,28.497511886809406,0.0,1.0
1624704768.8125,0,0,0.0,0.0,1.0
1624704769.28125,0,0,54.85691357405745,0.0,1.0
1624704769.75,0,0,0.0,0.0,1.0
1624704770.21875,0,0,103.04930585702022,0.0,1.0
1624704770.6875,0,0,0.0,0.0,1.0
1624704771.15625,0,0,10.84396261795951,0.0,1.0
1624704771.625,0,0,57.22025535566393,0.0,1.0
1624704772.09375,0,0,0.0,0.0,1.0
1624704772.5625,0,0,89.95040377276246,0.0,1.0
1624704773.03125,0,0,27.75102950013169,0.0,1.0
1624704773.5,0,0,0.0,0.0,1.0
1624704773.96875,0,0,37.10127036544184,0.0,1.0
1624704774.4375,0,0,-22.226544350578425,0.0,1.0
1624704774.90625,0,0,0.0,0.0,1.0
1624704775.375,0,0,285.1435504290724,0.0,1.0
1624704775.84375,0,0,-190.28246885877354,0.0,1.0
1624704776.3125,0,0,140.51278045024088,0.0,1.0
1624704776.78125,0,0,0.0,0.0,1.0
1624704777.25,0,0,-20.372793593007284,0.0,1.0
1624704777.71875,0,0,16.13487051432646,0.0,1.0
1624704778.1875,0,0,25.920493225676623,0.0,1.0
1624704778.65625,0,0,0.0,0.0,1.0
1624704779.125,0,0,0.0,0.0,1.0
1624704779.59375,0,0,44.440229734646465,0.0,1.0
1624704780.0625,0,0,58.21687500520284,0.0,1.0
1624704780.53125,0,0,31.435649820100938,0.0,1.0
1624704781.0,0,0,20.203151045565207,0.0,1.0
1624704781.46875,0,0,0.0,0.0,1.0
1624704781.9375,0,0,0.0,0.0,1.0
1624704782.40625,0,0,186.51467852179067,0.0,1.0
1624704782.875,0,0,-2.072291468054594,0.0,1.0
1624704783.34375,0,0,51.36045515296465,0.0,1.0
1624704783.8125,0,0,12.807208365806348,0.0,1.0
1624704784.28125,0,0,0.0,0.0,1.0
1624704784.75,0,0,20.117040427100523,0.0,1.0
1624704785.21875,0,0,0.0,0.0,1.0
1624704785.6875,0,0,50.19230756526217,0.0,1.0
1624704786.15625,0,0,0.0,0.0,1.0
1624704786.625,0,0,14.236106793859955,0.0,1.0
1624704787.09375,0,0,62.683796099415666,0.0,1.0
1624704787.5625,0,0,0.0,0.0,1.0
1624704788.03125,0,0,160.4914350163978,0.0,1.0
1624704788.5,0,0,0.0,0.0,1.0
1624704788.96875,0,0,0.0,0.0,1.0
1624704789.4375,0,0,-0.2134004273145218,0.0,1.0
1624704789.90625,0,0,0.0,0.0,1.0
1624704790.375,0,0,152.17906870391414,0.0,1.0
1624704790.84375,0,0,0.0,0.0,1.0
1624704791.3125,0,0,0.0,0.0,1.0
1624704791.78125,0,0,163.81192958087985,0.0,1.0
1624704792.25,0,0,0.0,0.0,1.0
1624704792.71875,0,0,0.0,0.0,1.0
1624704793.1875,0,0,0.0,0.0,1.0
1624704793.65625,0,0,43.323627989278066,0.0,1.0
1624704794.125,0,0,208.78249433162333,0.0,1.0
1624704794.59375,0,0,76.52617673474863,0.0,1.0
1624704795.0625,0,0,0.0,0.0,1.0
1624704795.53125,0,0,0.0,0.0,1.0
1624704796.0,0,0,160.69642450160816,0.0,1.0
1624704796.46875,0,0,84.67591525144218,0.0,1.0
1624704796.9375,0,0,0.0,0.0,1.0
1624704797.40625,0,0,0.0,0.0,1.0
1624704797.875,0,0,96.62337754961794,0.0,1.0
1624704798.34375,0,0,-13.191715278679753,0.0,1.0
1624704798.8125,0,0,80.03433098792465,0.0,1.0
1624704799.28125,0,0,0.0,0.0,1.0
1624704799.75,0,0,60.15655853642725,0.0,1.0
1624704800.21875,0,0,73.58289710267572,0.0,1.0
1624704800.6875,0,0,178.75856795993232,0.0,1.0
1624704801.15625,0,0,-1.0917505403446983,0.0,1.0
1624704801.625,0,0,125.26705714989028,0.0,1.0
1624704802.09375,0,0,112.93647182227755,0.0,1.0
1624704802.5625,0,0,14.734244507462755,0.0,1.0
1624704803.03125,0,0,41.665432336179784,0.0,1.0
1624704803.5,0,0,0.0,0.0,1.0
1624704803.96875,0,0,233.30226301331052,0.0,1.0
1624704804.4375,0,0,55.38552201344215,0.0,1.0
1624704804.90625,0,0,0.0,0.0,1.0
1624704805.375,0,0,0.0,0.0,1.0
1624704805.84375,0,0,203.30529014826357,0.0,1.0
1624704806.3125,0,0,-0.12746230508560188,0.0,1.0
1624704806.78125,0,0,60.0721821204905,0.0,1.0
1624704807.25,0,0,0.0,0.0,1.0
1624704807.71875,0,0,200.69347134161202,0.0,1.0
1624704808.1875,0,0,64.4594435631071,0.0,1.0
1624704808.65625,0,0,0.0,0.0,1.0
1624704809.125,0,0,0.0,0.0,1.0
1624704809.59375,0,0,168.4691242153481,0.0,1.0
1624704810.0625,0,0,0.0,0.0,1.0
1624704810.53125,0,0,52.98860993081153,0.0,1.0
1624704811.0,0,0,0.0,0.0,1.0
1624704811.46875,0,0,174.75402461959533,0.0,1.0
1624704811.9375,0,0,0.0,0.0,1.0
1624704812.40625,0,0,39.43690115464596,0.0,1.0
1624704812.875,0,0,49.290240947724385,0.0,1.0
1624704813.34375,0,0,0.0,0.0,1.0
1624704813.8125,0,0,150.76323538589799,0.0,1.0
1624704814.28125,0,0,57.53853702395753,0.0,1.0
1624704814.75,0,0,37.4674486971273,0.0,1.0
1624704815.21875,0,0,0.0,0.0,1.0
1624704815.6875,0,0,186.98479383679893,0.0,1.0
1624704816.15625,0,0,0.0,0.0,1.0
1624704816.625,0,0,67.51452605332774,0.0,1.0
1624704817.09375,0,0,26.639951814112365,0.0,1.0
1624704817.5625,0,0,200.0095692562334,0.0,1.0
1624704818.03125,0,0,0.0,0.0,1.0
1624704818.5,0,0,102.56076060574132,0.0,1.0
1624704818.96875,0,0,-31.540103760652897,0.0,1.0
1624704819.4375,0,0,0.0,0.0,1.0
1624704819.90625,0,0,175.850432274446,0.0,1.0
1624704820.375,0,0,0.0,0.0,1.0
1624704820.84375,0,0,105.39085867869693,0.0,1.0
1624704821.3125,0,0,24.66330568723261,0.0,1.0
1624704821.78125,0,0,201.89939779554507,0.0,1.0
1624704822.25,0,0,0.0,0.0,1.0
1624704822.71875,0,0,83.95363765497312,0.0,1.0
1624704823.1875,0,0,0.0,0.0,1.0
1624704823.65625,0,0,145.0706018443633,0.0,1.0
1624704824.125,0,0,0.0,0.0,1.0
1624704824.59375,0,0,69.64158086609976,0.0,1.0
1624704825.0625,0,0,0.0,0.0,1.0
1624704825.53125,0,0,228.7290543008599,0.0,1.0
1624704826.0,0,0,0.0,0.0,1.0
1624704826.46875,0,0,68.86964765264817,0.0,1.0
1624704826.9375,0,0,31.30642842694666,0.0,1.0
1624704827.40625,0,0,0.0,0.0,1.0
1624704827.875,0,0,231.27087377696233,0.0,1.0
1624704828.34375,0,0,73.85379316850286,0.0,1.0
1624704828.8125,0,0,0.0,0.0,1.0
1624704829.28125,0,0,62.745052756960625,0.0,1.0
1624704829.75,0,0,230.01248682059557,0.0,1.0
1624704830.21875,0,0,0.0,0.0,1.0
1624704830.6875,0,0,110.27797868054907,0.0,1.0
1624704831.15625,0,0,31.24093056129005,0.0,1.0
1624704831.625,0,0,0.0,0.0,1.0
1624704832.09375,0,0,30.586767064211685,0.0,1.0
1624704832.5625,0,0,43.93220850322045,0.0,1.0
1624704833.03125,0,0,0.0,0.0,1.0
1624704833.5,0,0,78.04696724739298,0.0,1.0
1624704833.96875,0,0,0.0,0.0,1.0
1624704834.4375,0,0,61.03745134128638,0.0,1.0
1624704834.90625,0,0,0.0,0.0,1.0
1624704835.375,0,0,0.0,0.0,1.0
1624704835.84375,0,0,24.638231611064537,0.0,1.0
1624704836.3125,0,0,19.17014536691943,0.0,1.0
1624704836.78125,0,0,54.31732376597887,0.0,1.0
1624704837.25,0,0,54.19272018599309,0.0,1.0
1624704837.71875,0,0,38.58197311872915,0.0,1.0
1624704838.1875,0,0,0.0,0.0,1.0
1624704838.65625,0,0,176.02670318988694,0.0,1.0
1624704839.125,0,0,0.0,0.0,1.0
1624704839.59375,0,0,113.62594832806326,0.0,1.0
1624704840.0625,0,0,38.503055432167436,0.0,1.0
1624704840.53125,0,0,0.0,0.0,1.0
1624704841.0,0,0,36.86822066640007,0.0,1.0
1624704841.46875,0,0,17.789039579693064,0.0,1.0
1624704841.9375,0,0,108.15116276989032,0.0,1.0
1624704842.40625,0,0,88.67359471425408,0.0,1.0
1624704842.875,0,0,15.274560522430987,0.0,1.0
1624704843.34375,0,0,-4.726935739999574,0.0,1.0
1624704843.8125,0,0,42.141827936890344,0.0,1.0
1624704844.28125,0,0,-0.3112721175728081,0.0,1.0
1624704844.75,0,0,-9.534620994760164,0.0,1.0
1624704845.21875,0,0,47.46421146939903,0.0,1.0
1624704845.6875,0,0,0.0,0.0,1.0
1624704846.15625,0,0,27.90227433520843,0.0,1.0
1624704846.625,0,0,65.40535707689962,0.0,1.0
1624704847.09375,0,0,0.0,0.0,1.0
1624704847.5625,0,0,177.2951722841669,0.0,1.0
1624704848.03125,0,0,0.0,0.0,1.0
1624704848.5,0,0,249.04074611167167,0.0,1.0
1624704848.96875,0,0,0.0,0.0,1.0
1624704849.4375,0,0,28.331514426123857,0.0,1.0
1624704849.90625,0,0,18.614836072117853,0.0,1.0
1624704850.375,0,0,205.96014204963103,0.0,1.0
1624704850.84375,0,0,0.0,0.0,1.0
1624704851.3125,0,0,65.6934405511882,0.0,1.0
1624704851.78125,0,0,0.0,0.0,1.0
1624704852.25,0,0,0.0,0.0,1.0
1624704852.71875,0,0,228.06935244081504,0.0,1.0
1624704853.1875,0,0,33.061171387148896,0.0,1.0
1624704853.65625,0,0,68.03979204315863,0.0,1.0
1624704854.125,0,0,58.992090728685916,0.0,1.0
1624704854.59375,0,0,0.0,0.0,1.0
1624704855.0625,0,0,9.955299731039549,0.0,1.0
1624704855.53125,0,0,0.0,0.0,1.0
1624704856.0,0,0,203.84809161212283,0.0,1.0
1624704856.46875,0,0,-0.8014065816344271,0.0,1.0
1624704856.9375,0,0,178.13956389684105,0.0,1.0
1624704857.40625,0,0,0.0,0.0,1.0
1624704857.875,0,0,-29.71679025194199,0.0,1.0
1624704858.34375,0,0,89.15151607621445,0.0,1.0
1624704858.8125,0,0,175.40505413649032,0.0,1.0
1624704859.28125,0,0,0.0,0.0,1.0
1624704859.75,0,0,80.80895801623188,0.0,1.0
1624704860.21875,0,0,12.579860115948888,0.0,1.0
1624704860.6875,0,0,0.0,0.0,1.0
1624704861.15625,0,0,262.344395116173,0.0,1.0
1624704861.625,0,0,0.0,0.0,1.0
1624704862.09375,0,0,122.31762836635872,0.0,1.0
1624704862.5625,0,0,0.0,0.0,1.0
1624704863.03125,0,0,0.0,0.0,1.0
1624704863.5,0,0,161.10420579815298,0.0,1.0
1624704863.96875,0,0,66.2348311242366,0.0,1.0
1624704864.4375,0,0,66.76432163748859,0.0,1.0
1624704864.90625,0,0,0.0,0.0,1.0
1624704865.375,0,0,28.12619937210219,0.0,1.0
1624704865.84375,0,0,171.02429529516175,0.0,1.0
1624704866.3125,0,0,0.0,0.0,1.0
1624704866.78125,0,0,80.72851668880888,0.0,1.0
1624704867.25,0,0,0.0,0.0,1.0
1624704867.71875,0,0,0.0,0.0,1.0
1624704868.1875,0,0,47.281631082809476,0.0,1.0
1624704868.65625,0,0,205.661366654709,0.0,1.0
1624704869.125,0,0,116.06624533420867,0.0,1.0
1624704869.59375,0,0,0.0,0.0,1.0
1624704870.0625,0,0,55.0608597240991,0.0,1.0
1624704870.53125,0,0,0.0,0.0,1.0
1624704871.0,0,0,201.08285502353178,0.0,1.0
1624704871.46875,0,0,0.0,0.0,1.0
1624704871.9375,0,0,26.580166560021066,0.0,1.0
1624704872.40625,0,0,105.56457194589201,0.0,1.0
1624704872.875,0,0,138.69066147333837,0.0,1.0
1624704873.34375,0,0,0.0,0.0,1.0
1624704873.8125,0,0,102.87731534136783,0.0,1.0
1624704874.28125,0,0,0.0,0.0,1.0
1624704874.75,0,0,37.262075561277136,0.0,1.0
1624704875.21875,0,0,-16.007470635428536,0.0,1.0
1624704875.6875,0,0,8.806113810970892,0.0,1.0
1624704876.15625,0,0,228.1005484858709,0.0,1.0
1624704876.625,0,0,0.0,0.0,1.0
1624704877.09375,0,0,227.12902467835312,0.0,1.0
1624704877.5625,0,0,-8.491532203136469,0.0,1.0
1624704878.03125,0,0,0.0,0.0,1.0
1624704878.5,0,0,61.39945841912599,0.0,1.0
1624704878.96875,0,0,0.0,0.0,1.0
1624704879.4375,0,0,0.0,0.0,1.0
1624704879.90625,0,0,0.0,0.0,1.0
1624704880.375,0,0,56.51141787861978,0.0,1.0
1624704880.84375,0,0,0.0,0.0,1.0
1624704881.3125,0,0,0.0,0.0,1.0
1624704881.78125,0,0,0.0,0.0,1.0
1624704882.25,0,0,157.49311106247328,0.0,1.0
1624704882.71875,0,0,0.0,0.0,1.0
1624704883.1875,0,0,80.07434763013812,0.0,1.0
1624704883.65625,0,0,0.0,0.0,1.0
1624704884.125,0,0,51.98644934179202,0.0,1.0
1624704884.59375,0,0,16.610604816226637,0.0,1.0
1624704885.0625,0,0,0.0,0.0,1.0
1624704885.53125,0,0,246.09047416411147,0.0,1.0
1624704886.0,0,0,73.34998681404542,0.0,1.0
1624704886.46875,0,0,53.843832051605304,0.0,1.0
1624704886.9375,0,0,0.0,0.0,1.0
1624704887.40625,0,0,173.80104971528948,0.0,1.0
1624704887.875,0,0,0.0,0.0,1.0
1624704888.34375,0,0,55.631667599861466,0.0,1.0
1624704888.8125,0,0,0.0,0.0,1.0
1624704889.28125,0,0,200.09577646859836,0.0,1.0
1624704889.75,0,0,51.45107724986891,0.0,1.0
1624704890.21875,0,0,98.65114579187984,0.0,1.0
1624704890.6875,0,0,-58.97601242566128,0.0,1.0
1624704891.15625,0,0,154.44113511014763,0.0,1.0
1624704891.625,0,0,-72.41136663027011,0.0,1.0
1624704892.09375,0,0,95.87690499308701,0.0,1.0
1624704892.5625,0,0,0.0,0.0,1.0
1624704893.03125,0,0,0.0,0.0,1.0
1624704893.5,0,0,37.5633678712023,0.0,1.0
1624704893.96875,0,0,0.0,0.0,1.0
1624704894.4375,0,0,-19.84384902029023,0.0,1.0
1624704894.90625,0,0,137.64925939560894,0.0,1.0
1624704895.375,0,0,-200.15916332885,0.0,1.0
1624704895.84375,0,0,27.909656187822293,0.0,1.0
1624704896.3125,0,0,453.85831218701503,0.0,1.0
1624704896.78125,0,0,0.0,0.0,1.0
1624704897.25,0,0,-56.597597313097836,0.0,1.0
1624704897.71875,0,0,50.8533807778152,0.0,1.0
1624704898.1875,0,0,135.8099850795182,0.0,1.0
1624704898.65625,0,0,0.0,0.0,1.0
1624704899.125,0,0,27.49298555254584,0.0,1.0
1624704899.59375,0,0,74.97149155139473,0.0,1.0
1624704900.0625,0,0,0.0,0.0,1.0
1624704900.53125,0,0,36.04300777361752,0.0,1.0
1624704901.0,0,0,0.0,0.0,1.0
1624704901.46875,0,0,39.062534809157654,0.0,1.0
1624704901.9375,0,0,-13.360829310330413,0.0,1.0
1624704902.40625,0,0,22.50891367982707,0.0,1.0
1624704902.875,0,0,43.56979074482167,0.0,1.0
1624704903.34375,0,0,0.0,0.0,1.0
1624704903.8125,0,0,32.7460022366277,0.0,1.0
1624704904.28125,0,0,0.0,0.0,1.0
1624704904.75,0,0,47.98879398789733,0.0,1.0
1624704905.21875,0,0,0.0,0.0,1.0
1624704905.6875,0,0,33.4815302506706,0.0,1.0
1624704906.15625,0,0,0.0,0.0,1.0
1624704906.625,0,0,7.608292696511111,0.0,1.0
1624704907.09375,0,0,0.0,0.0,1.0
1624704907.5625,0,0,180.12017882230447,0.0,1.0
1624704908.03125,0,0,77.50623765872378,0.0,1.0
1624704908.5,0,0,0.0,0.0,1.0
1624704908.96875,0,0,193.8252409256392,0.0,1.0
1624704909.4375,0,0,0.0,0.0,1.0
1624704909.90625,0,0,61.623479355746916,0.0,1.0
1624704910.375,0,0,0.0,0.0,1.0
1624704910.84375,0,0,0.0,0.0,1.0
1624704911.3125,0,0,179.28187737966837,0.0,1.0
1624704911.78125,0,0,0.0,0.0,1.0
1624704912.25,0,0,80.65202501885538,0.0,1.0
1624704912.71875,0,0,1.2475118056117116,0.0,1.0
1624704913.1875,0,0,4.526130619862208,0.0,1.0
1624704913.65625,0,0,80.44508275176103,0.0,1.0
1624704914.125,0,0,106.29751173373636,0.0,1.0
1624704914.59375,0,0,22.637014238384054,0.0,1.0
1624704915.0625,0,0,0.0,0.0,1.0
1624704915.53125,0,0,101.71180575664937,0.0,1.0
1624704916.0,0,0,35.29687548215359,0.0,1.0
1624704916.46875,0,0,0.0,0.0,1.0
1624704916.9375,0,0,30.62887652422882,0.0,1.0
1624704917.40625,0,0,0.9480289762961774,0.0,1.0
1624704917.875,0,0,0.0,0.0,1.0
1624704918.34375,0,0,182.22969275571901,0.0,1.0
1624704918.8125,0,0,-18.481178289827042,0.0,1.0
1624704919.28125,0,0,92.68790719048101,0.0,1.0
1624704919.75,0,0,0.0,0.0,1.0
1624704920.21875,0,0,132.3905657192087,0.0,1.0
1624704920.6875,0,0,40.589081907200345,0.0,1.0
1624704921.15625,0,0,0.0,0.0,1.0
1624704921.625,0,0,0.0,0.0,1.0
1624704922.09375,0,0,29.11848648457892,0.0,1.0
1624704922.5625,0,0,0.0,0.0,1.0
1624704923.03125,0,0,227.4875949935916,0.0,1.0
1624704923.5,0,0,0.0,0.0,1.0
1624704923.96875,0,0,263.67764451441326,0.0,1.0
1624704924.4375,0,0,0.0,0.0,1.0
1624704924.90625,0,0,0.0,0.0,1.0
1624704925.375,0,0,0.0,0.0,1.0
1624704925.84375,0,0,0.0,0.0,1.0
1624704926.3125,0,0,95.86099311132088,0.0,1.0
1624704926.78125,0,0,27.280675712587122,0.0,1.0
1624704927.25,0,0,24.841463776039593,0.0,1.0
1624704927.71875,0,0,0.0,0.0,1.0
1624704928.1875,0,0,81.66180566829009,0.0,1.0
1624704928.65625,0,0,4.268470370979623,0.0,1.0
1624704929.125,0,0,162.35751196668696,0.0,1.0
1624704929.59375,0,0,86.96321228337237,0.0,1.0
1624704930.0625,0,0,0.0,0.0,1.0
1624704930.53125,0,0,31.86106862827665,0.0,1.0
1624704931.0,0,0,54.55680109387535,0.0,1.0
1624704931.46875,0,0,0.0,0.0,1.0
1624704931.9375,0,0,193.54355547131274,0.0,1.0
1624704932.40625,0,0,28.873609620865814,0.0,1.0
1624704932.875,0,0,26.30992044209823,0.0,1.0
1624704933.34375,0,0,199.78498674758123,0.0,1.0
1624704933.8125,0,0,0.0,0.0,1.0
1624704934.28125,0,0,55.148468851790234,0.0,1.0
1624704934.75,0,0,39.221310175868,0.0,1.0
1624704935.21875,0,0,0.0,0.0,1.0
1624704935.6875,0,0,24.436256819273325,0.0,1.0
1624704936.15625,0,0,0.0,0.0,1.0
1624704936.625,0,0,288.02816127961535,0.0,1.0
1624704937.09375,0,0,50.15227063631242,0.0,1.0
1624704937.5625,0,0,0.0,0.0,1.0
1624704938.03125,0,0,171.38123247608596,0.0,1.0
1624704938.5,0,0,45.47792731362856,0.0,1.0
1624704938.96875,0,0,0.0,0.0,1.0
1624704939.4375,0,0,60.10348583883833,0.0,1.0
1624704939.90625,0,0,141.80405281660637,0.0,1.0
1624704940.375,0,0,13.819094767380284,0.0,1.0
1624704940.84375,0,0,52.3488714555174,0.0,1.0
1624704941.3125,0,0,0.0,0.0,1.0
1624704941.78125,0,0,13.767338361572957,0.0,1.0
1624704942.25,0,0,-21.452665242744814,0.0,1.0
1624704942.71875,0,0,76.96450364669168,0.0,1.0
1624704943.1875,0,0,47.26395124747054,0.0,1.0
1624704943.65625,0,0,23.049660208724067,0.0,1.0
1624704944.125,0,0,31.43363933101207,0.0,1.0
1624704944.59375,0,0,0.0,0.0,1.0
1624704945.0625,0,0,180.04137271133337,0.0,1.0
1624704945.53125,0,0,18.840675436282396,0.0,1.0
1624704946.0,0,0,61.52698606103012,0.0,1.0
1624704946.46875,0,0,0.0,0.0,1.0
1624704946.9375,0,0,0.0,0.0,1.0
1624704947.40625,0,0,201.77179817547443,0.0,1.0
1624704947.875,0,0,73.30897052769625,0.0,1.0
1624704948.34375,0,0,0.0,0.0,1.0
1624704948.8125,0,0,31.223084506564533,0.0,1.0
1624704949.28125,0,0,0.0,0.0,1.0
1624704949.75,0,0,114.6507051450385,0.0,1.0
1624704950.21875,0,0,36.25912982562959,0.0,1.0
1624704950.6875,0,0,51.239272842892696,0.0,1.0
1624704951.15625,0,0,0.0,0.0,1.0
1624704951.625,0,0,19.70997294749582,0.0,1.0
1624704952.09375,0,0,31.268915732281734,0.0,1.0
1624704952.5625,0,0,0.0,0.0,1.0
1624704953.03125,0,0,35.899284650083366,0.0,1.0
1624704953.5,0,0,0.0,0.0,1.0
1624704953.96875,0,0,33.06838989758356,0.0,1.0
1624704954.4375,0,0,0.0,0.0,1.0
1624704954.90625,0,0,85.98287075818281,0.0,1.0
1624704955.375,0,0,94.16716652869093,0.0,1.0
1624704955.84375,0,0,0.0,0.0,1.0
1624704956.3125,0,0,94.55533486120966,0.0,1.0
1624704956.78125,0,0,22.065761213069337,0.0,1.0
1624704957.25,0,0,21.170343815706953,0.0,1.0
1624704957.71875,0,0,0.0,0.0,1.0
1624704958.1875,0,0,40.06647437391838,0.0,1.0
1624704958.65625,0,0,0.0,0.0,1.0
1624704959.125,0,0,29.916275237968485,0.0,1.0
1624704959.59375,0,0,22.57801527886247,0.0,1.0
1624704960.0625,0,0,13.675948842549449,0.0,1.0
1624704960.53125,0,0,42.60039575926433,0.0,1.0
1624704961.0,0,0,1.9147243508779834,0.0,1.0
1624704961.46875,0,0,26.11965737006599,0.0,1.0
1624704961.9375,0,0,0.0,0.0,1.0
1624704962.40625,0,0,30.620701890157072,0.0,1.0
1624704962.875,0,0,0.0,0.0,1.0
1624704963.34375,0,0,56.08910757821691,0.0,1.0
1624704963.8125,0,0,34.62089397428842,0.0,1.0
1624704964.28125,0,0,0.0,0.0,1.0
1624704964.75,0,0,172.17018873692152,0.0,1.0
1624704965.21875,0,0,-62.68022192632837,0.0,1.0
1624704965.6875,0,0,37.764311925376674,0.0,1.0
1624704966.15625,0,0,0.0,0.0,1.0
1624704966.625,0,0,-115.72726906962654,0.0,1.0
1624704967.09375,0,0,41.897543617208605,0.0,1.0
1624704967.5625,0,0,0.0,0.0,1.0
1624704968.03125,0,0,0.0,0.0,1.0
1624704968.5,0,0,0.0,0.0,1.0
1624704968.96875,0,0,9.529472517613199,0.0,1.0
1624704969.4375,0,0,23.81559824366102,0.0,1.0
1624704969.90625,0,0,0.0,0.0,1.0
1624704970.375,0,0,-31.11065023816677,0.0,1.0
1624704970.84375,0,0,0.0,0.0,1.0
1624704971.3125,0,0,0.0,0.0,1.0
1624704971.78125,0,0,0.0,0.0,1.0
1624704972.25,0,0,120.11298790605936,0.0,1.0
1624704972.71875,0,0,3.6395176350029335,0.0,1.0
1624704973.1875,0,0,45.343236533215695,0.0,1.0
1624704973.65625,0,0,0.0,0.0,1.0
1624704974.125,0,0,122.02934745912432,0.0,1.0
1624704974.59375,0,0,8.554504422786147,0.0,1.0
1624704975.0625,0,0,43.08857274221036,0.0,1.0
1624704975.53125,0,0,0.0,0.0,1.0
1624704976.0,0,0,30.994978737916817,0.0,1.0
1624704976.46875,0,0,85.08955113348398,0.0,1.0
1624704976.9375,0,0,24.021562766246447,0.0,1.0
1624704977.40625,0,0,43.7931473100402,0.0,1.0
1624704977.875,0,0,0.0,0.0,1.0
1624704978.34375,0,0,165.29802199152311,0.0,1.0
1624704978.8125,0,0,0.0,0.0,1.0
1624704979.28125,0,0,44.39273644309767,0.0,1.0
1624704979.75,0,0,0.0,0.0,1.0
1624704980.21875,0,0,103.17105705657346,0.0,1.0
1624704980.6875,0,0,85.66736124383351,0.0,1.0
1624704981.15625,0,0,-32.673450613664485,0.0,1.0
1624704981.625,0,0,51.76975581324838,0.0,1.0
1624704982.09375,0,0,0.0,0.0,1.0
1624704982.5625,0,0,124.7449430508954,0.0,1.0
1624704983.03125,0,0,36.07122268420767,0.0,1.0
1624704983.5,0,0,21.925243767116857,0.0,1.0
1624704983.96875,0,0,3.760918593699461,0.0,1.0
1624704984.4375,0,0,169.75275920100603,0.0,1.0
1624704984.90625,0,0,-33.56811275392264,0.0,1.0
1624704985.375,0,0,68.06346790750956,0.0,1.0
1624704985.84375,0,0,0.0,0.0,1.0
1624704986.3125,0,0,23.777433934750068,0.0,1.0
1624704986.78125,0,0,168.47532474318658,0.0,1.0
1624704987.25,0,0,36.60368881973632,0.0,1.0
1624704987.71875,0,0,0.0,0.0,1.0
1624704988.1875,0,0,0.0,0.0,1.0
1624704988.65625,0,0,134.05407037134736,0.0,1.0
1624704989.125,0,0,-76.08753953733354,0.0,1.0
1624704989.59375,0,0,0.0,0.0,1.0
1624704990.0625,0,0,0.0,0.0,1.0
1624704990.53125,0,0,90.49695154348557,0.0,1.0
1624704991.0,0,0,0.0,0.0,1.0
1624704991.46875,0,0,0.0,0.0,1.0
1624704991.9375,0,0,0.0,0.0,1.0
1624704992.40625,0,0,133.50105832844073,0.0,1.0
1624704992.875,0,0,18.713472678602496,0.0,1.0
1624704993.34375,0,0,0.0,0.0,1.0
1624704993.8125,0,0,47.9796673855616,0.0,1.0
1624704994.28125,0,0,111.80335699556102,0.0,1.0
1624704994.75,0,0,-16.790425532826784,0.0,1.0
1624704995.21875,0,0,66.86607152764073,0.0,1.0
1624704995.6875,0,0,0.0,0.0,1.0
1624704996.15625,0,0,25.00543961104688,0.0,1.0
1624704996.625,0,0,179.16162141262527,0.0,1.0
1624704997.09375,0,0,-57.250881531293274,0.0,1.0
1624704997.5625,0,0,66.39972136422159,0.0,1.0
1624704998.03125,0,0,0.0,0.0,1.0
1624704998.5,0,0,0.0,0.0,1.0
1624704998.96875,0,0,135.9488401117549,0.0,1.0
1624704999.4375,0,0,-16.021242642664962,0.0,1.0
1624704999.90625,0,0,0.0,0.0,1.0
1624705000.375,0,0,127.01718323774857,0.0,1.0
1624705000.84375,0,0,38.44309018676192,0.0,1.0
1624705001.3125,0,0,0.0,0.0,1.0
1624705001.78125,0,0,37.99199544479817,0.0,1.0
1624705002.25,0,0,86.31646479966535,0.0,1.0
1624705002.71875,0,0,122.45270550042154,0.0,1.0
1624705003.1875,0,0,29.434262305536954,0.0,1.0
1624705003.65625,0,0,25.384218912962428,0.0,1.0
1624705004.125,0,0,37.112010908461215,0.0,1.0
1624705004.59375,0,0,67.88266427340096,0.0,1.0
1624705005.0625,0,0,-4.236341115128223,0.0,1.0
1624705005.53125,0,0,32.717436957003365,0.0,1.0
1624705006.0,0,0,97.46814742143975,0.0,1.0
1624705006.46875,0,0,5.411947917817247,0.0,1.0
1624705006.9375,0,0,0.0,0.0,1.0
1624705007.40625,0,0,59.76172458536481,0.0,1.0
1624705007.875,0,0,30.224522199504467,0.0,1.0
1624705008.34375,0,0,0.0,0.0,1.0
1624705008.8125,0,0,47.13901016070763,0.0,1.0
1624705009.28125,0,0,0.23516173655782568,0.0,1.0
1624705009.75,0,0,0.0,0.0,1.0
1624705010.21875,0,0,58.29995732589407,0.0,1.0
1624705010.6875,0,0,0.0,0.0,1.0
1624705011.15625,0,0,25.77215577808102,0.0,1.0
1624705011.625,0,0,0.0,0.0,1.0
1624705012.09375,0,0,37.083010271819,0.0,1.0
1624705012.5625,0,0,21.15694416995678,0.0,1.0
1624705013.03125,0,0,0.0,0.0,1.0
1624705013.5,0,0,86.92327127408319,0.0,1.0
1624705013.96875,0,0,0.0,0.0,1.0
1624705014.4375,0,0,17.476814132873983,0.0,1.0
1624705014.90625,0,0,31.70801710027499,0.0,1.0
1624705015.375,0,0,0.0,0.0,1.0
1624705015.84375,0,0,23.519083508151525,0.0,1.0
1624705016.3125,0,0,23.387657448560596,0.0,1.0
1624705016.78125,0,0,0.0,0.0,1.0
1624705017.25,0,0,23.437577835977066,0.0,1.0
1624705017.71875,0,0,0.0,0.0,1.0
1624705018.1875,0,0,48.10375840561927,0.0,1.0
1624705018.65625,0,0,-65.1810600853768,0.0,1.0
1624705019.125,0,0,61.84556969104454,0.0,1.0
1624705019.59375,0,0,55.64423807810837,0.0,1.0
1624705020.0625,0,0,0.0,0.0,1.0
1624705020.53125,0,0,48.196742147750044,0.0,1.0
1624705021.0,0,0,27.565152918877047,0.0,1.0
1624705021.46875,0,0,0.0,0.0,1.0
1624705021.9375,0,0,25.954138629202948,0.0,1.0
1624705022.40625,0,0,24.974710315433047,0.0,1.0
1624705022.875,0,0,0.0,0.0,1.0
1624705023.34375,0,0,46.857107295853766,0.0,1.0
1624705023.8125,0,0,0.0,0.0,1.0
1624705024.28125,0,0,156.4613343488798,0.0,1.0
1624705024.75,0,0,0.0,0.0,1.0
1624705025.21875,0,0,142.0271795969257,0.0,1.0
1624705025.6875,0,0,0.0,0.0,1.0
1624705026.15625,0,0,30.810887903737264,0.0,1.0
1624705026.625,0,0,0.0,0.0,1.0
1624705027.09375,0,0,162.64979412234123,0.0,1.0
1624705027.5625,0,0,40.54626991252647,0.0,1.0
1624705028.03125,0,0,59.82217131735793,0.0,1.0
1624705028.5,0,0,20.775025187542845,0.0,1.0
1624705028.96875,0,0,0.0,0.0,1.0
1624705029.4375,0,0,0.0,0.0,1.0
1624705029.90625,0,0,47.02033554593464,0.0,1.0
1624705030.375,0,0,0.0,0.0,1.0
1624705030.84375,0,0,0.0,0.0,1.0
1624705031.3125,0,0,5.802555110455821,0.0,1.0
1624705031.78125,0,0,108.9957271263331,0.0,1.0
1624705032.25,0,0,149.3395137334958,0.0,1.0
1624705032.71875,0,0,0.0,0.0,1.0
1624705033.1875,0,0,133.75956020829,0.0,1.0
1624705033.65625,0,0,19.61866802803435,0.0,1.0
1624705034.125,0,0,45.744672252156846,0.0,1.0
1624705034.59375,0,0,0.0,0.0,1.0
1624705035.0625,0,0,27.517459033792743,0.0,1.0
1624705035.53125,0,0,0.0,0.0,1.0
1624705036.0,0,0,0.0,0.0,1.0
1624705036.46875,0,0,-34.42168099541909,0.0,1.0
1624705036.9375,0,0,32.73321650446602,0.0,1.0
1624705037.40625,0,0,0.0,0.0,1.0
1624705037.875,0,0,67.52775945368506,0.0,1.0
1624705038.34375,0,0,-13.638651322585577,0.0,1.0
1624705038.8125,0,0,14.69425321524197,0.0,1.0
1624705039.28125,0,0,0.0,0.0,1.0
1624705039.75,0,0,40.712845015552794,0.0,1.0
1624705040.21875,0,0,-18.70266186210681,0.0,1.0
1624705040.6875,0,0,50.29293549682104,0.0,1.0
1624705041.15625,0,0,0.0,0.0,1.0
1624705041.625,0,0,87.98840545370469,0.0,1.0
1624705042.09375,0,0,0.0,0.0,1.0
1624705042.5625,0,0,62.21277966709227,0.0,1.0
1624705043.03125,0,0,29.273609389829247,0.0,1.0
1624705043.5,0,0,0.0,0.0,1.0
1624705043.96875,0,0,149.43849237940395,0.0,1.0
1624705044.4375,0,0,4.067219094980274,0.0,1.0
1624705044.90625,0,0,4.283071923687793,0.0,1.0
1624705045.375,0,0,39.42615585779572,0.0,1.0
1624705045.84375,0,0,169.90978001317788,0.0,1.0
1624705046.3125,0,0,-63.184886454391034,0.0,1.0
1624705046.78125,0,0,53.06362134536093,0.0,1.0
1624705047.25,0,0,0.0,0.0,1.0
1624705047.71875,0,0,169.29691344842084,0.0,1.0
1624705048.1875,0,0,0.0,0.0,1.0
1624705048.65625,0,0,67.16136605311623,0.0,1.0
1624705049.125,0,0,23.615169793302666,0.0,1.0
1624705049.59375,0,0,0.0,0.0,1.0
1624705050.0625,0,0,142.29942463603194,0.0,1.0
1624705050.53125,0,0,0.0,0.0,1.0
1624705051.0,0,0,48.77310404129362,0.0,1.0
1624705051.46875,0,0,119.98203062083671,0.0,1.0
1624705051.9375,0,0,0.0,0.0,1.0
1624705052.40625,0,0,44.90433850997688,0.0,1.0
1624705052.875,0,0,14.26790173680188,0.0,1.0
1624705053.34375,0,0,0.0,0.0,1.0
1624705053.8125,0,0,149.75819737860581,0.0,1.0
1624705054.28125,0,0,0.0,0.0,1.0
1624705054.75,0,0,39.77440536865498,0.0,1.0
1624705055.21875,0,0,41.245773974719235,0.0,1.0
1624705055.6875,0,0,90.09723066087976,0.0,1.0
1624705056.15625,0,0,20.466768455988415,0.0,1.0
1624705056.625,0,0,0.0,0.0,1.0
1624705057.09375,0,0,20.659684682372582,0.0,1.0
1624705057.5625,0,0,113.82992027391543,0.0,1.0
1624705058.03125,0,0,65.4360963283831,0.0,1.0
1624705058.5,0,0,46.417141731469265,0.0,1.0
1624705058.96875,0,0,0.0,0.0,1.0
1624705059.4375,0,0,152.66144922762803,0.0,1.0
1624705059.90625,0,0,0.0,0.0,1.0
1624705060.375,0,0,57.42182499587773,0.0,1.0
1624705060.84375,0,0,23.932350700303644,0.0,1.0
1624705061.3125,0,0,0.0,0.0,1.0
1624705061.78125,0,0,-3.4556630180946195,0.0,1.0
1624705062.25,0,0,0.0,0.0,1.0
1624705062.71875,0,0,61.358882200085205,0.0,1.0
1624705063.1875,0,0,53.278015428751104,0.0,1.0
1624705063.65625,0,0,0.0,0.0,1.0
1624705064.125,0,0,62.99279812083527,0.0,1.0
1624705064.59375,0,0,23.71366185530975,0.0,1.0
1624705065.0625,0,0,0.0,0.0,1.0
1624705065.53125,0,0,234.30974432834392,0.0,1.0
1624705066.0,0,0,0.0,0.0,1.0
1624705066.46875,0,0,61.38911803130058,0.0,1.0
1624705066.9375,0,0,29.976696570322307,0.0,1.0
1624705067.40625,0,0,0.0,0.0,1.0
1624705067.875,0,0,42.49680481441866,0.0,1.0
1624705068.34375,0,0,0.0,0.0,1.0
1624705068.8125,0,0,37.74944785416362,0.0,1.0
1624705069.28125,0,0,40.03217494592204,0.0,1.0
1624705069.75,0,0,0.0,0.0,1.0
1624705070.21875,0,0,18.360901055150478,0.0,1.0
1624705070.6875,0,0,34.022978831281776,0.0,1.0
1624705071.15625,0,0,0.0,0.0,1.0
1624705071.625,0,0,29.923778068237066,0.0,1.0
1624705072.09375,0,0,0.0,0.0,1.0
1624705072.5625,0,0,32.94606891595113,0.0,1.0
1624705073.03125,0,0,0.0,0.0,1.0
1624705073.5,0,0,33.587648690857755,0.0,1.0
1624705073.96875,0,0,0.0,0.0,1.0
1624705074.4375,0,0,22.533683306249632,0.0,1.0
1624705074.90625,0,0,70.62238370324128,0.0,1.0
1624705075.375,0,0,29.487309224228618,0.0,1.0
1624705075.84375,0,0,136.15200456502248,0.0,1.0
1624705076.3125,0,0,0.0,0.0,1.0
1624705076.78125,0,0,16.343167588852303,0.0,1.0
1624705077.25,0,0,43.994786234513114,0.0,1.0
1624705077.71875,0,0,0.0,0.0,1.0
1624705078.1875,0,0,5.4143743930565185,0.0,1.0
1624705078.65625,0,0,109.17537456014355,0.0,1.0
1624705079.125,0,0,-13.536936454445222,0.0,1.0
1624705079.59375,0,0,47.645851765234774,0.0,1.0
1624705080.0625,0,0,0.0,0.0,1.0
1624705080.53125,0,0,27.863247237764366,0.0,1.0
1624705081.0,0,0,0.0,0.0,1.0
1624705081.46875,0,0,39.46450655536545,0.0,1.0
1624705081.9375,0,0,0.0,0.0,1.0
1624705082.40625,0,0,29.318412768097044,0.0,1.0
1624705082.875,0,0,131.68763521019696,0.0,1.0
1624705083.34375,0,0,-96.09140758869646,0.0,1.0
1624705083.8125,0,0,59.18964298071732,0.0,1.0
1624705084.28125,0,0,82.2905758418424,0.0,1.0
1624705084.75,0,0,0.0,0.0,1.0
1624705085.21875,0,0,-3.498951129472684,0.0,1.0
1624705085.6875,0,0,38.58374909834648,0.0,1.0
1624705086.15625,0,0,152.30924918223266,0.0,1.0
1624705086.625,0,0,-37.815560542089024,0.0,1.0
1624705087.09375,0,0,50.377250360065716,0.0,1.0
1624705087.5625,0,0,0.0,0.0,1.0
1624705088.03125,0,0,0.0,0.0,1.0
1624705088.5,0,0,136.0755247349842,0.0,1.0
1624705088.96875,0,0,28.85115771288296,0.0,1.0
1624705089.4375,0,0,29.689502986719184,0.0,1.0
1624705089.90625,0,0,-8.316320665342031,0.0,1.0
1624705090.375,0,0,98.27031320384457,0.0,1.0
1624705090.84375,0,0,0.0,0.0,1.0
1624705091.3125,0,0,-3.17738815024781,0.0,1.0
1624705091.78125,0,0,0.0,0.0,1.0
1624705092.25,0,0,156.56618566344903,0.0,1.0
1624705092.71875,0,0,-76.26842119015429,0.0,1.0
1624705093.1875,0,0,-13.562200842144422,0.0,1.0
1624705093.65625,0,0,51.68724225625398,0.0,1.0
1624705094.125,0,0,0.0,0.0,1.0
1624705094.59375,0,0,173.42615987114357,0.0,1.0
1624705095.0625,0,0,0.0,0.0,1.0
1624705095.53125,0,0,-14.348407464590775,0.0,1.0
1624705096.0,0,0,92.02710319275413,0.0,1.0
1624705096.46875,0,0,0.0,0.0,1.0
1624705096.9375,0,0,142.6141880573332,0.0,1.0
1624705097.40625,0,0,0.0,0.0,1.0
1624705097.875,0,0,63.682139541947784,0.0,1.0
1624705098.34375,0,0,0.0,0.0,1.0
1624705098.8125,0,0,146.00573193189,0.0,1.0
1624705099.28125,0,0,50.323705073527464,0.0,1.0
1624705099.75,0,0,122.92999243654214,0.0,1.0
1624705100.21875,0,0,-45.70628256312534,0.0,1.0
1624705100.6875,0,0,196.75282139178967,0.0,1.0
1624705101.15625,0,0,-55.11642116685569,0.0,1.0
1624705101.625,0,0,41.81647608766641,0.0,1.0
1624705102.09375,0,0,0.0,0.0,1.0
1624705102.5625,0,0,170.67567225662248,0.0,1.0
1624705103.03125,0,0,39.102935659873395,0.0,1.0
1624705103.5,0,0,20.53676922567282,0.0,1.0
1624705103.96875,0,0,0.0,0.0,1.0
1624705104.4375,0,0,207.52290882672355,0.0,1.0
1624705104.90625,0,0,0.0,0.0,1.0
1624705105.375,0,0,24.989123238425254,0.0,1.0
1624705105.84375,0,0,45.084852409639964,0.0,1.0
1624705106.3125,0,0,162.776467765061,0.0,1.0
1624705106.78125,0,0,0.0,0.0,1.0
1624705107.25,0,0,57.50029718206459,0.0,1.0
1624705107.71875,0,0,0.0,0.0,1.0
1624705108.1875,0,0,0.0,0.0,1.0
1624705108.65625,0,0,146.45225508617355,0.0,1.0
1624705109.125,0,0,-6.237701911833311,0.0,1.0
1624705109.59375,0,0,39.11828276874435,0.0,1.0
1624705110.0625,0,0,0.0,0.0,1.0
1624705110.53125,0,0,185.2516408319893,0.0,1.0
1624705111.0,0,0,52.60486191480528,0.0,1.0
1624705111.46875,0,0,0.0,0.0,1.0
1624705111.9375,0,0,7.966794809048926,0.0,1.0
1624705112.40625,0,0,8.655484865257101,0.0,1.0
1624705112.875,0,0,0.0,0.0,1.0
1624705113.34375,0,0,51.005079664677076,0.0,1.0
1624705113.8125,0,0,0.0,0.0,1.0
1624705114.28125,0,0,188.28940681361283,0.0,1.0
1624705114.75,0,0,0.0,0.0,1.0
1624705115.21875,0,0,53.607884135899084,0.0,1.0
1624705115.6875,0,0,39.161771690469244,0.0,1.0
1624705116.15625,0,0,0.0,0.0,1.0
1624705116.625,0,0,127.39187476526457,0.0,1.0
1624705117.09375,0,0,0.0,0.0,1.0
1624705117.5625,0,0,38.06540240621075,0.0,1.0
1624705118.03125,0,0,33.34083168614895,0.0,1.0
1624705118.5,0,0,0.0,0.0,1.0
1624705118.96875,0,0,176.80931420634494,0.0,1.0
1624705119.4375,0,0,-57.3404387819092,0.0,1.0
1624705119.90625,0,0,52.29738567187545,0.0,1.0
1624705120.375,0,0,149.20078776585424,0.0,1.0
1624705120.84375,0,0,-1.598640866626716,0.0,1.0
1624705121.3125,0,0,41.420523966446765,0.0,1.0
1624705121.78125,0,0,0.0,0.0,1.0
1624705122.25,0,0,0.0,0.0,1.0
1624705122.71875,0,0,176.01843969745752,0.0,1.0
1624705123.1875,0,0,48.005973467013156,0.0,1.0
1624705123.65625,0,0,27.25663413691321,0.0,1.0
1624705124.125,0,0,30.902490307892947,0.0,1.0
1624705124.59375,0,0,116.32160003318636,0.0,1.0
1624705125.0625,0,0,5.610016210643742,0.0,1.0
1624705125.53125,0,0,55.32339049147943,0.0,1.0
1624705126.0,0,0,0.0,0.0,1.0
1624705126.46875,0,0,10.848592971345385,0.0,1.0
1624705126.9375,0,0,40.335310386287496,0.0,1.0
1624705127.40625,0,0,0.0,0.0,1.0
1624705127.875,0,0,32.61164950269365,0.0,1.0
1624705128.34375,0,0,24.792860750236358,0.0,1.0
1624705128.8125,0,0,23.895718984407598,0.0,1.0
1624705129.28125,0,0,39.32332663219267,0.0,1.0
1624705129.75,0,0,0.0,0.0,1.0
1624705130.21875,0,0,32.73886642716436,0.0,1.0
1624705130.6875,0,0,27.609156267167723,0.0,1.0
1624705131.15625,0,0,28.856245882671328,0.0,1.0
1624705131.625,0,0,23.22242801584902,0.0,1.0
1624705132.09375,0,0,0.0,0.0,1.0
1624705132.5625,0,0,22.12306366007616,0.0,1.0
1624705133.03125,0,0,0.0,0.0,1.0
1624705133.5,0,0,27.83335959868966,0.0,1.0
1624705133.96875,0,0,8.972602773952222,0.0,1.0
1624705134.4375,0,0,18.821552119727954,0.0,1.0
1624705134.90625,0,0,27.187720291906054,0.0,1.0
1624705135.375,0,0,27.386815579467303,0.0,1.0
1624705135.84375,0,0,46.878620096105664,0.0,1.0
1624705136.3125,0,0,0.0,0.0,1.0
1624705136.78125,0,0,25.820134441455448,0.0,1.0
1624705137.25,0,0,0.0,0.0,1.0
1624705137.71875,0,0,110.08571515943981,0.0,1.0
1624705138.1875,0,0,29.40974925056295,0.0,1.0
1624705138.65625,0,0,17.008505873440917,0.0,1.0
1624705139.125,0,0,7.457649693478016,0.0,1.0
1624705139.59375,0,0,37.69341206999383,0.0,1.0
1624705140.0625,0,0,0.0,0.0,1.0
1624705140.53125,0,0,4.554691250207698,0.0,1.0
1624705141.0,0,0,0.0,0.0,1.0
1624705141.46875,0,0,177.77933528896267,0.0,1.0
1624705141.9375,0,0,0.0,0.0,1.0
1624705142.40625,0,0,51.52526356405131,0.0,1.0
1624705142.875,0,0,0.0,0.0,1.0
1624705143.34375,0,0,172.7864825418175,0.0,1.0
1624705143.8125,0,0,0.0,0.0,1.0
1624705144.28125,0,0,55.88362973455815,0.0,1.0
1624705144.75,0,0,14.290620583524829,0.0,1.0
1624705145.21875,0,0,172.44823677250042,0.0,1.0
1624705145.6875,0,0,0.0,0.0,1.0
1624705146.15625,0,0,37.97605759195417,0.0,1.0
1624705146.625,0,0,10.145765513866955,0.0,1.0
1624705147.09375,0,0,0.0,0.0,1.0
1624705147.5625,0,0,172.5148158868719,0.0,1.0
1624705148.03125,0,0,85.55639308902526,0.0,1.0
1624705148.5,0,0,85.8216550391012,0.0,1.0
1624705148.96875,0,0,0.0,0.0,1.0
1624705149.4375,0,0,204.15264271476573,0.0,1.0
1624705149.90625,0,0,0.0,0.0,1.0
1624705150.375,0,0,62.46539678998966,0.0,1.0
1624705150.84375,0,0,0.0,0.0,1.0
1624705151.3125,0,0,51.12939435864853,0.0,1.0
1624705151.78125,0,0,146.5396558869765,0.0,1.0
1624705152.25,0,0,0.0,0.0,1.0
1624705152.71875,0,0,59.56289475043354,0.0,1.0
1624705153.1875,0,0,0.0,0.0,1.0
1624705153.65625,0,0,209.06399172356285,0.0,1.0
1624705154.125,0,0,90.0182498154077,0.0,1.0
1624705154.59375,0,0,0.0,0.0,1.0
1624705155.0625,0,0,0.0,0.0,1.0
1624705155.53125,0,0,195.00038144618162,0.0,1.0
1624705156.0,0,0,0.0,0.0,1.0
1624705156.46875,0,0,62.714153312547346,0.0,1.0
1624705156.9375,0,0,0.0,0.0,1.0
1624705157.40625,0,0,209.38665417624125,0.0,1.0
1624705157.875,0,0,0.0,0.0,1.0
1624705158.34375,0,0,80.68686403187289,0.0,1.0
1624705158.8125,0,0,0.0,0.0,1.0
1624705159.28125,0,0,177.72390041638803,0.0,1.0
1624705159.75,0,0,45.358261246533665,0.0,1.0
1624705160.21875,0,0,0.0,0.0,1.0
1624705160.6875,0,0,0.31894481819026427,0.0,1.0
1624705161.15625,0,0,155.07177702158538,0.0,1.0
1624705161.625,0,0,-43.10020851790687,0.0,1.0
1624705162.09375,0,0,52.70732867129936,0.0,1.0
1624705162.5625,0,0,0.0,0.0,1.0
1624705163.03125,0,0,199.05089568898333,0.0,1.0
1624705163.5,0,0,0.0,0.0,1.0
1624705163.96875,0,0,73.11112057991159,0.0,1.0
1624705164.4375,0,0,18.16814133099762,0.0,1.0
1624705164.90625,0,0,0.0,0.0,1.0
1624705165.375,0,0,193.77122280503326,0.0,1.0
1624705165.84375,0,0,0.0,0.0,1.0
1624705166.3125,0,0,57.06967908444994,0.0,1.0
1624705166.78125,0,0,0.0,0.0,1.0
1624705167.25,0,0,166.14848744695635,0.0,1.0
1624705167.71875,0,0,0.0,0.0,1.0
1624705168.1875,0,0,38.46382285634943,0.0,1.0
1624705168.65625,0,0,87.48350132979003,0.0,1.0
1624705169.125,0,0,0.0,0.0,1.0
1624705169.59375,0,0,160.95404098168783,0.0,1.0
1624705170.0625,0,0,0.0,0.0,1.0
1624705170.53125,0,0,38.178777620425485,0.0,1.0
1624705171.0,0,0,36.72748346311732,0.0,1.0
1624705171.46875,0,0,191.4871955909369,0.0,1.0
1624705171.9375,0,0,-6.94798337950107,0.0,1.0
1624705172.40625,0,0,70.5349775891548,0.0,1.0
1624705172.875,0,0,0.0,0.0,1.0
1624705173.34375,0,0,186.15502840894453,0.0,1.0
1624705173.8125,0,0,210.3487779434101,0.0,1.0
1624705174.28125,0,0,-75.93183623957385,0.0,1.0
1624705174.75,0,0,19.981968502498447,0.0,1.0
1624705175.21875,0,0,183.53825842200007,0.0,1.0
1624705175.6875,0,0,-34.30304649661432,0.0,1.0
1624705176.15625,0,0,49.24304487214112,0.0,1.0
1624705176.625,0,0,0.0,0.0,1.0
1624705177.09375,0,0,0.0,0.0,1.0
1624705177.5625,0,0,171.0469528566164,0.0,1.0
1624705178.03125,0,0,32.958138688052024,0.0,1.0
1624705178.5,0,0,25.725860027644302,0.0,1.0
1624705178.96875,0,0,0.0,0.0,1.0
1624705179.4375,0,0,82.42067465664587,0.0,1.0
1624705179.90625,0,0,0.0,0.0,1.0
1624705180.375,0,0,38.129758159991816,0.0,1.0
1624705180.84375,0,0,0.0,0.0,1.0
1624705181.3125,0,0,34.42463144256765,0.0,1.0
1624705181.78125,0,0,164.8581030065663,0.0,1.0
1624705182.25,0,0,46.755634151909,0.0,1.0
1624705182.71875,0,0,0.0,0.0,1.0
1624705183.1875,0,0,166.3158778570176,0.0,1.0
1624705183.65625,0,0,0.0,0.0,1.0
1624705184.125,0,0,39.573485993011374,0.0,1.0
1624705184.59375,0,0,36.849725200703915,0.0,1.0
1624705185.0625,0,0,0.0,0.0,1.0
1624705185.53125,0,0,0.0,0.0,1.0
1624705186.0,0,0,0.0,0.0,1.0
1624705186.46875,0,0,61.779802278913806,0.0,1.0
1624705186.9375,0,0,64.24571354570345,0.0,1.0
1624705187.40625,0,0,0.0,0.0,1.0
1624705187.875,0,0,147.07525489191684,0.0,1.0
1624705188.34375,0,0,0.0,0.0,1.0
1624705188.8125,0,0,-40.48647771565706,0.0,1.0
1624705189.28125,0,0,0.0,0.0,1.0
1624705189.75,0,0,31.23323745379591,0.0,1.0
1624705190.21875,0,0,26.63419945020149,0.0,1.0
1624705190.6875,0,0,0.0,0.0,1.0
1624705191.15625,0,0,140.39187928822838,0.0,1.0
1624705191.625,0,0,4.310859318452493,0.0,1.0
1624705192.09375,0,0,0.0,0.0,1.0
1624705192.5625,0,0,63.98449948589054,0.0,1.0
1624705193.03125,0,0,39.66291263615765,0.0,1.0
1624705193.5,0,0,0.0,0.0,1.0
1624705193.96875,0,0,246.0476777937682,0.0,1.0
1624705194.4375,0,0,-0.7032871690681058,0.0,1.0
1624705194.90625,0,0,-4.867222016390051,0.0,1.0
1624705195.375,0,0,35.81964270007449,0.0,1.0
1624705195.84375,0,0,0.0,0.0,1.0
1624705196.3125,0,0,17.603492483308298,0.0,1.0
1624705196.78125,0,0,47.62166046604991,0.0,1.0
1624705197.25,0,0,31.315560852529106,0.0,1.0
1624705197.71875,0,0,20.52177314303658,0.0,1.0
1624705198.1875,0,0,0.0,0.0,1.0
1624705198.65625,0,0,49.290278629842625,0.0,1.0
1624705199.125,0,0,0.0,0.0,1.0
1624705199.59375,0,0,8.591079440822753,0.0,1.0
1624705200.0625,0,0,0.0,0.0,1.0
1624705200.53125,0,0,115.88232826635395,0.0,1.0
1624705201.0,0,0,0.0,0.0,1.0
1624705201.46875,0,0,0.0,0.0,1.0
1624705201.9375,0,0,0.0,0.0,1.0
1624705202.40625,0,0,171.53456322438998,0.0,1.0
1624705202.875,0,0,47.347813400209965,0.0,1.0
1624705203.34375,0,0,0.0,0.0,1.0
1624705203.8125,0,0,66.93107854064526,0.0,1.0
1624705204.28125,0,0,119.94138652560403,0.0,1.0
1624705204.75,0,0,18.1525000782324,0.0,1.0
1624705205.21875,0,0,70.74075544964201,0.0,1.0
1624705205.6875,0,0,0.0,0.0,1.0
1624705206.15625,0,0,0.0,0.0,1.0
1624705206.625,0,0,118.69825624473408,0.0,1.0
1624705207.09375,0,0,16.56774233087032,0.0,1.0
1624705207.5625,0,0,38.647274638690924,0.0,1.0
1624705208.03125,0,0,0.0,0.0,1.0
1624705208.5,0,0,19.09755797022471,0.0,1.0
1624705208.96875,0,0,0.0,0.0,1.0
1624705209.4375,0,0,-59.42223914155854,0.0,1.0
1624705209.90625,0,0,0.0,0.0,1.0
1624705210.375,0,0,123.34397360053991,0.0,1.0
1624705210.84375,0,0,0.0,0.0,1.0
1624705211.3125,0,0,42.28889715817341,0.0,1.0
1624705211.78125,0,0,0.0,0.0,1.0
1624705212.25,0,0,151.963226243879,0.0,1.0
1624705212.71875,0,0,-77.5685528212896,0.0,1.0
1624705213.1875,0,0,90.34656749290036,0.0,1.0
1624705213.65625,0,0,11.147588324972993,0.0,1.0
1624705214.125,0,0,0.0,0.0,1.0
1624705214.59375,0,0,0.0,0.0,1.0
1624705215.0625,0,0,137.20256887033003,0.0,1.0
1624705215.53125,0,0,44.36244890257799,0.0,1.0
1624705216.0,0,0,0.0,0.0,1.0
1624705216.46875,0,0,0.0,0.0,1.0
1624705216.9375,0,0,0.0,0.0,1.0
1624705217.40625,0,0,49.898851932433054,0.0,1.0
1624705217.875,0,0,39.79400547394183,0.0,1.0
1624705218.34375,0,0,0.0,0.0,1.0
1624705218.8125,0,0,200.99893629710508,0.0,1.0
1624705219.28125,0,0,0.0,0.0,1.0
1624705219.75,0,0,68.98560311826833,0.0,1.0
1624705220.21875,0,0,18.56280870821407,0.0,1.0
1624705220.6875,0,0,6.877336818136122,0.0,1.0
1624705221.15625,0,0,112.92027614055745,0.0,1.0
1624705221.625,0,0,6.755529386186944,0.0,1.0
1624705222.09375,0,0,73.75750488197515,0.0,1.0
1624705222.5625,0,0,0.0,0.0,1.0
1624705223.03125,0,0,12.255900670447906,0.0,1.0
1624705223.5,0,0,0.0,0.0,1.0
1624705223.96875,0,0,201.70365122241793,0.0,1.0
1624705224.4375,0,0,119.6518096656711,0.0,1.0
1624705224.90625,0,0,168.68490260351155,0.0,1.0
1624705225.375,0,0,-13.639720167575017,0.0,1.0
1624705225.84375,0,0,0.0,0.0,1.0
1624705226.3125,0,0,90.18935079509498,0.0,1.0
1624705226.78125,0,0,0.0,0.0,1.0
1624705227.25,0,0,22.699573280662285,0.0,1.0
1624705227.71875,0,0,40.076455875064774,0.0,1.0
1624705228.1875,0,0,0.0,0.0,1.0
1624705228.65625,0,0,141.45673449763234,0.0,1.0
1624705229.125,0,0,0.0,0.0,1.0
1624705229.59375,0,0,70.42068377227434,0.0,1.0
1624705230.0625,0,0,17.549952546401297,0.0,1.0
1624705230.53125,0,0,0.0,0.0,1.0
1624705231.0,0,0,202.12891523570403,0.0,1.0
1624705231.46875,0,0,0.0,0.0,1.0
1624705231.9375,0,0,0.0,0.0,1.0
1624705232.40625,0,0,34.271960778753744,0.0,1.0
1624705232.875,0,0,0.0,0.0,1.0
1624705233.34375,0,0,158.66042183256098,0.0,1.0
1624705233.8125,0,0,60.57175929269361,0.0,1.0
1624705234.28125,0,0,0.0,0.0,1.0
1624705234.75,0,0,0.0,0.0,1.0
1624705235.21875,0,0,-87.14714467149088,0.0,1.0
1624705235.6875,0,0,57.20501488088494,0.0,1.0
1624705236.15625,0,0,0.0,0.0,1.0
1624705236.625,0,0,39.54375541894237,0.0,1.0
1624705237.09375,0,0,0.0,0.0,1.0
1624705237.5625,0,0,179.2752342957477,0.0,1.0
1624705238.03125,0,0,0.0,0.0,1.0
1624705238.5,0,0,124.93096631537371,0.0,1.0
1624705238.96875,0,0,0.0,0.0,1.0
1624705239.4375,0,0,0.0,0.0,1.0
1624705239.90625,0,0,15.508883240812875,0.0,1.0
1624705240.375,0,0,0.0,0.0,1.0
1624705240.84375,0,0,202.97821528285618,0.0,1.0
1624705241.3125,0,0,66.83731738367703,0.0,1.0
1624705241.78125,0,0,0.0,0.0,1.0
1624705242.25,0,0,0.0,0.0,1.0
1624705242.71875,0,0,148.4485717682169,0.0,1.0
1624705243.1875,0,0,30.08015145316954,0.0,1.0
1624705243.65625,0,0,44.633940162241814,0.0,1.0
1624705244.125,0,0,0.0,0.0,1.0
1624705244.59375,0,0,68.02580636500703,0.0,1.0
1624705245.0625,0,0,0.0,0.0,1.0
1624705245.53125,0,0,99.65986724492458,0.0,1.0
1624705246.0,0,0,68.15231874393264,0.0,1.0
1624705246.46875,0,0,0.0,0.0,1.0
1624705246.9375,0,0,29.18865136554277,0.0,1.0
1624705247.40625,0,0,35.46982756040398,0.0,1.0
1624705247.875,0,0,0.0,0.0,1.0
1624705248.34375,0,0,0.0,0.0,1.0
1624705248.8125,0,0,171.4800864423312,0.0,1.0
1624705249.28125,0,0,0.0,0.0,1.0
1624705249.75,0,0,37.53187191267215,0.0,1.0
1624705250.21875,0,0,26.131174927147736,0.0,1.0
1624705250.6875,0,0,32.34879099509178,0.0,1.0
1624705251.15625,0,0,0.0,0.0,1.0
1624705251.625,0,0,26.991649861661738,0.0,1.0
1624705252.09375,0,0,0.0,0.0,1.0
1624705252.5625,0,0,35.3778020331559,0.0,1.0
1624705253.03125,0,0,0.0,0.0,1.0
1624705253.5,0,0,24.53023633554446,0.0,1.0
1624705253.96875,0,0,0.0,0.0,1.0
1624705254.4375,0,0,32.248354274312035,0.0,1.0
1624705254.90625,0,0,16.17898914223693,0.0,1.0
1624705255.375,0,0,0.0,0.0,1.0
1624705255.84375,0,0,138.62398908948796,0.0,1.0
1624705256.3125,0,0,0.0,0.0,1.0
1624705256.78125,0,0,49.766895741086714,0.0,1.0
1624705257.25,0,0,0.0,0.0,1.0
1624705257.71875,0,0,21.632044808471,0.0,1.0
1624705258.1875,0,0,0.0,0.0,1.0
1624705258.65625,0,0,27.373457083271,0.0,1.0
1624705259.125,0,0,22.744579643610386,0.0,1.0
1624705259.59375,0,0,0.0,0.0,1.0
1624705260.0625,0,0,24.876985430789272,0.0,1.0
1624705260.53125,0,0,0.0,0.0,1.0
1624705261.0,0,0,0.0,0.0,1.0
1624705261.46875,0,0,30.893159175613388,0.0,1.0
1624705261.9375,0,0,0.0,0.0,1.0
1624705262.40625,0,0,25.615613281504586,0.0,1.0
1624705262.875,0,0,0.0,0.0,1.0
1624705263.34375,0,0,23.590492486603427,0.0,1.0
1624705263.8125,0,0,0.0,0.0,1.0
1624705264.28125,0,0,23.12377746065514,0.0,1.0
1624705264.75,0,0,0.0,0.0,1.0
1624705265.21875,0,0,24.09461854746796,0.0,1.0
1624705265.6875,0,0,0.0,0.0,1.0
1624705266.15625,0,0,19.049072179892335,0.0,1.0
1624705266.625,0,0,0.0,0.0,1.0
1624705267.09375,0,0,27.70545680338906,0.0,1.0
1624705267.5625,0,0,0.0,0.0,1.0
1624705268.03125,0,0,17.122264695358144,0.0,1.0
1624705268.5,0,0,0.0,0.0,1.0
1624705268.96875,0,0,26.792380103110002,0.0,1.0
1624705269.4375,0,0,18.212646972339442,0.0,1.0
1624705269.90625,0,0,0.0,0.0,1.0
1624705270.375,0,0,48.719684345460315,0.0,1.0
1624705270.84375,0,0,-10.219868444561524,0.0,1.0
1624705271.3125,0,0,41.35413622491242,0.0,1.0
1624705271.78125,0,0,4.319938506749121,0.0,1.0
1624705272.25,0,0,4.084115097654363,0.0,1.0
1624705272.71875,0,0,158.6412791457089,0.0,1.0
1624705273.1875,0,0,0.0,0.0,1.0
1624705273.65625,0,0,112.79129025379393,0.0,1.0
1624705274.125,0,0,0.0,0.0,1.0
1624705274.59375,0,0,102.75667654814559,0.0,1.0
1624705275.0625,0,0,0.0,0.0,1.0
1624705275.53125,0,0,0.0,0.0,1.0
1624705276.0,0,0,0.0,0.0,1.0
1624705276.46875,0,0,233.18689644517536,0.0,1.0
1624705276.9375,0,0,47.175480514709996,0.0,1.0
1624705277.40625,0,0,0.0,0.0,1.0
1624705277.875,0,0,0.0,0.0,1.0
1624705278.34375,0,0,126.09677761073353,0.0,1.0
1624705278.8125,0,0,0.5479609356742589,0.0,1.0
1624705279.28125,0,0,0.0,0.0,1.0
1624705279.75,0,0,126.83996123119788,0.0,1.0
1624705280.21875,0,0,0.0,0.0,1.0
1624705280.6875,0,0,165.29320464541766,0.0,1.0
1624705281.15625,0,0,-8.719640889763138,0.0,1.0
1624705281.625,0,0,28.616292767797216,0.0,1.0
1624705282.09375,0,0,0.0,0.0,1.0
1624705282.5625,0,0,27.789224274558944,0.0,1.0
1624705283.03125,0,0,170.87590234965276,0.0,1.0
1624705283.5,0,0,0.0,0.0,1.0
1624705283.96875,0,0,0.0,0.0,1.0
1624705284.4375,0,0,151.5009516525119,0.0,1.0
1624705284.90625,0,0,31.736268289711955,0.0,1.0
1624705285.375,0,0,22.059966346532264,0.0,1.0
1624705285.84375,0,0,0.0,0.0,1.0
1624705286.3125,0,0,0.0,0.0,1.0
1624705286.78125,0,0,133.48093480871617,0.0,1.0
1624705287.25,0,0,35.55757902207309,0.0,1.0
1624705287.71875,0,0,40.727373412537226,0.0,1.0
1624705288.1875,0,0,0.0,0.0,1.0
1624705288.65625,0,0,0.0,0.0,1.0
1624705289.125,0,0,162.855282471948,0.0,1.0
1624705289.59375,0,0,-24.470014718847327,0.0,1.0
1624705290.0625,0,0,24.226380674836392,0.0,1.0
1624705290.53125,0,0,27.126734808685285,0.0,1.0
1624705291.0,0,0,168.7134624852016,0.0,1.0
1624705291.46875,0,0,0.0,0.0,1.0
1624705291.9375,0,0,66.26152417345446,0.0,1.0
1624705292.40625,0,0,0.0,0.0,1.0
1624705292.875,0,0,139.5964397758626,0.0,1.0
1624705293.34375,0,0,0.0,0.0,1.0
1624705293.8125,0,0,46.07779520883844,0.0,1.0
1624705294.28125,0,0,0.0,0.0,1.0
1624705294.75,0,0,54.94408830214713,0.0,1.0
1624705295.21875,0,0,159.53564768300183,0.0,1.0
1624705295.6875,0,0,-12.97732114870872,0.0,1.0
1624705296.15625,0,0,94.54837257451346,0.0,1.0
1624705296.625,0,0,68.78341938548577,0.0,1.0
1624705297.09375,0,0,2.600856902821291,0.0,1.0
1624705297.5625,0,0,0.0,0.0,1.0
1624705298.03125,0,0,0.0,0.0,1.0
1624705298.5,0,0,-7.6370307633562104,0.0,1.0
1624705298.96875,0,0,-20.110680172838737,0.0,1.0
1624705299.4375,0,0,190.4493495609927,0.0,1.0
1624705299.90625,0,0,0.0,0.0,1.0
1624705300.375,0,0,70.7408817923767,0.0,1.0
1624705300.84375,0,0,174.34011597505847,0.0,1.0
1624705301.3125,0,0,0.0,0.0,1.0
1624705301.78125,0,0,59.61534477240777,0.0,1.0
1624705302.25,0,0,0.0,0.0,1.0
1624705302.71875,0,0,48.929766296586266,0.0,1.0
1624705303.1875,0,0,199.14567842799087,0.0,1.0
1624705303.65625,0,0,0.0,0.0,1.0
1624705304.125,0,0,58.8449453753521,0.0,1.0
1624705304.59375,0,0,46.27210083863463,0.0,1.0
1624705305.0625,0,0,69.58584917299791,0.0,1.0
1624705305.53125,0,0,53.02853636204502,0.0,1.0
1624705306.0,0,0,10.002993981075116,0.0,1.0
1624705306.46875,0,0,29.25530883078083,0.0,1.0
1624705306.9375,0,0,0.0,0.0,1.0
1624705307.40625,0,0,-15.278219021167939,0.0,1.0
1624705307.875,0,0,-9.688768232033638,0.0,1.0
1624705308.34375,0,0,80.80687270983535,0.0,1.0
1624705308.8125,0,0,101.63687468278712,0.0,1.0
1624705309.28125,0,0,11.182661526962272,0.0,1.0
1624705309.75,0,0,36.1928081936646,0.0,1.0
1624705310.21875,0,0,0.0,0.0,1.0
1624705310.6875,0,0,130.33766321199923,0.0,1.0
1624705311.15625,0,0,0.0,0.0,1.0
1624705311.625,0,0,41.35204109613616,0.0,1.0
1624705312.09375,0,0,11.59660827094201,0.0,1.0
1624705312.5625,0,0,13.263496969309472,0.0,1.0
1624705313.03125,0,0,0.0,0.0,1.0
1624705313.5,0,0,136.09690348505495,0.0,1.0
1624705313.96875,0,0,15.234774172393877,0.0,1.0
1624705314.4375,0,0,0.0,0.0,1.0
1624705314.90625,0,0,172.9004962247872,0.0,1.0
1624705315.375,0,0,33.193512076173135,0.0,1.0
1624705315.84375,0,0,50.76315300342665,0.0,1.0
1624705316.3125,0,0,0.0,0.0,1.0
1624705316.78125,0,0,144.63427980712953,0.0,1.0
1624705317.25,0,0,-22.404320442541906,0.0,1.0
1624705317.71875,0,0,39.21436224477265,0.0,1.0
1624705318.1875,0,0,0.0,0.0,1.0
1624705318.65625,0,0,42.11052494489204,0.0,1.0
1624705319.125,0,0,-20.84830171682663,0.0,1.0
1624705319.59375,0,0,42.602799951887675,0.0,1.0
1624705320.0625,0,0,0.0,0.0,1.0
1624705320.53125,0,0,212.37465041760385,0.0,1.0
1624705321.0,0,0,-72.85517185072634,0.0,1.0
1624705321.46875,0,0,141.1375394957724,0.0,1.0
1624705321.9375,0,0,24.642281959787148,0.0,1.0
1624705322.40625,0,0,77.42848773000927,0.0,1.0
1624705322.875,0,0,0.0,0.0,1.0
1624705323.34375,0,0,-32.3782557823506,0.0,1.0
1624705323.8125,0,0,128.49362435087306,0.0,1.0
1624705324.28125,0,0,0.0,0.0,1.0
1624705324.75,0,0,16.38316041554429,0.0,1.0
1624705325.21875,0,0,-9.675326403612052,0.0,1.0
1624705325.6875,0,0,40.814519522230256,0.0,1.0
1624705326.15625,0,0,0.0,0.0,1.0
1624705326.625,0,0,4.4446482381887025,0.0,1.0
1624705327.09375,0,0,28.13917862178523,0.0,1.0
1624705327.5625,0,0,19.10559100268346,0.0,1.0
1624705328.03125,0,0,0.0,0.0,1.0
1624705328.5,0,0,26.24949159231345,0.0,1.0
1624705328.96875,0,0,0.0,0.0,1.0
1624705329.4375,0,0,24.98345295133805,0.0,1.0
1624705329.90625,0,0,0.0,0.0,1.0
1624705330.375,0,0,88.38469061982708,0.0,1.0
1624705330.84375,0,0,107.37996730230772,0.0,1.0
1624705331.3125,0,0,4.311928381105195,0.0,1.0
1624705331.78125,0,0,32.79835869501465,0.0,1.0
1624705332.25,0,0,12.915556457909133,0.0,1.0
1624705332.71875,0,0,20.23726955125507,0.0,1.0
1624705333.1875,0,0,0.891129392228433,0.0,1.0
1624705333.65625,0,0,11.227878100891909,0.0,1.0
1624705334.125,0,0,73.52996626731603,0.0,1.0
1624705334.59375,0,0,0.0,0.0,1.0
1624705335.0625,0,0,196.18475844973096,0.0,1.0
1624705335.53125,0,0,0.0,0.0,1.0
1624705336.0,0,0,231.77564640668953,0.0,1.0
1624705336.46875,0,0,0.0,0.0,1.0
1624705336.9375,0,0,52.584310391421965,0.0,1.0
1624705337.40625,0,0,2.9699258408949416,0.0,1.0
1624705337.875,0,0,-11.485769698160237,0.0,1.0
1624705338.34375,0,0,192.3175906125913,0.0,1.0
1624705338.8125,0,0,75.94282379455406,0.0,1.0
1624705339.28125,0,0,0.0,0.0,1.0
1624705339.75,0,0,0.0,0.0,1.0
1624705340.21875,0,0,163.73346572201024,0.0,1.0
1624705340.6875,0,0,67.334291570355,0.0,1.0
1624705341.15625,0,0,0.0,0.0,1.0
1624705341.625,0,0,62.01646617753878,0.0,1.0
1624705342.09375,0,0,105.30746183239869,0.0,1.0
1624705342.5625,0,0,-28.670494510227325,0.0,1.0
1624705343.03125,0,0,33.34770108762897,0.0,1.0
1624705343.5,0,0,0.0,0.0,1.0
1624705343.96875,0,0,203.32175001920496,0.0,1.0
1624705344.4375,0,0,0.0,0.0,1.0
1624705344.90625,0,0,42.19617371040666,0.0,1.0
1624705345.375,0,0,0.0,0.0,1.0
1624705345.84375,0,0,34.67671600283361,0.0,1.0
1624705346.3125,0,0,205.75333982655613,0.0,1.0
1624705346.78125,0,0,68.48835277034351,0.0,1.0
1624705347.25,0,0,0.0,0.0,1.0
1624705347.71875,0,0,183.81402687764052,0.0,1.0
1624705348.1875,0,0,0.0,0.0,1.0
1624705348.65625,0,0,77.73457584805418,0.0,1.0
1624705349.125,0,0,0.0,0.0,1.0
1624705349.59375,0,0,0.9578697894575334,0.0,1.0
1624705350.0625,0,0,0.0,0.0,1.0
1624705350.53125,0,0,0.0,0.0,1.0
1624705351.0,0,0,58.797201154356976,0.0,1.0
1624705351.46875,0,0,0.0,0.0,1.0
1624705351.9375,0,0,154.67539736025608,0.0,1.0
1624705352.40625,0,0,0.0,0.0,1.0
1624705352.875,0,0,30.4479399553068,0.0,1.0
1624705353.34375,0,0,0.0,0.0,1.0
1624705353.8125,0,0,158.99715119029332,0.0,1.0
1624705354.28125,0,0,-43.715702105703116,0.0,1.0
1624705354.75,0,0,44.67924941422364,0.0,1.0
1624705355.21875,0,0,20.677452814043882,0.0,1.0
1624705355.6875,0,0,0.0,0.0,1.0
1624705356.15625,0,0,185.7789047633744,0.0,1.0
1624705356.625,0,0,0.0,0.0,1.0
1624705357.09375,0,0,0.0,0.0,1.0
1624705357.5625,0,0,26.481676180693636,0.0,1.0
1624705358.03125,0,0,0.0,0.0,1.0
1624705358.5,0,0,175.5121415877131,0.0,1.0
1624705358.96875,0,0,31.039434156939777,0.0,1.0
1624705359.4375,0,0,0.0,0.0,1.0
1624705359.90625,0,0,109.55347919434303,0.0,1.0
1624705360.375,0,0,136.93712343828523,0.0,1.0
1624705360.84375,0,0,42.2860531250987,0.0,1.0
1624705361.3125,0,0,22.675934391613556,0.0,1.0
1624705361.78125,0,0,0.0,0.0,1.0
1624705362.25,0,0,159.82897124007027,0.0,1.0
1624705362.71875,0,0,0.0,0.0,1.0
1624705363.1875,0,0,17.349015822143638,0.0,1.0
1624705363.65625,0,0,93.28276563564921,0.0,1.0
1624705364.125,0,0,132.12744401363145,0.0,1.0
1624705364.59375,0,0,42.49676663054747,0.0,1.0
1624705365.0625,0,0,28.73871898647643,0.0,1.0
1624705365.53125,0,0,0.0,0.0,1.0
1624705366.0,0,0,0.0,0.0,1.0
1624705366.46875,0,0,153.93606206621354,0.0,1.0
1624705366.9375,0,0,35.70008962607148,0.0,1.0
1624705367.40625,0,0,0.0,0.0,1.0
1624705367.875,0,0,156.00116339360733,0.0,1.0
1624705368.34375,0,0,0.0,0.0,1.0
1624705368.8125,0,0,38.440540439224534,0.0,1.0
1624705369.28125,0,0,5.898159019477028,0.0,1.0
1624705369.75,0,0,-3.7866126614658797,0.0,1.0
1624705370.21875,0,0,151.8673336536311,0.0,1.0
1624705370.6875,0,0,-45.67353514725865,0.0,1.0
1624705371.15625,0,0,47.92721937161332,0.0,1.0
1624705371.625,0,0,0.0,0.0,1.0
1624705372.09375,0,0,158.25014354410771,0.0,1.0
1624705372.5625,0,0,57.997928232330686,0.0,1.0
1624705373.03125,0,0,0.0,0.0,1.0
1624705373.5,0,0,-18.225264174191068,0.0,1.0
1624705373.96875,0,0,167.26795858353847,0.0,1.0
1624705374.4375,0,0,214.8789765514193,0.0,1.0
1624705374.90625,0,0,0.0,0.0,1.0
1624705375.375,0,0,38.97534795148222,0.0,1.0
1624705375.84375,0,0,157.37301021681424,0.0,1.0
1624705376.3125,0,0,-70.28936717968922,0.0,1.0
1624705376.78125,0,0,45.398058337810035,0.0,1.0
1624705377.25,0,0,0.0,0.0,1.0
1624705377.71875,0,0,39.59607499386226,0.0,1.0
1624705378.1875,0,0,-0.3620539213936357,0.0,1.0
1624705378.65625,0,0,32.42866215027759,0.0,1.0
1624705379.125,0,0,24.653430780831886,0.0,1.0
1624705379.59375,0,0,123.93394046009493,0.0,1.0
1624705380.0625,0,0,187.72561940409997,0.0,1.0
1624705380.53125,0,0,0.0,0.0,1.0
1624705381.0,0,0,119.35605577863635,0.0,1.0
1624705381.46875,0,0,222.61260717069865,0.0,1.0
1624705381.9375,0,0,0.0,0.0,1.0
1624705382.40625,0,0,208.42275473222628,0.0,1.0
1624705382.875,0,0,84.07029868922338,0.0,1.0
1624705383.34375,0,0,34.780402947771606,0.0,1.0
1624705383.8125,0,0,11.789754550626215,0.0,1.0
1624705384.28125,0,0,47.71095403716364,0.0,1.0
1624705384.75,0,0,16.823837577410057,0.0,1.0
1624705385.21875,0,0,0.0,0.0,1.0
1624705385.6875,0,0,30.689240750484043,0.0,1.0
1624705386.15625,0,0,0.0,0.0,1.0
1624705386.625,0,0,30.920777844586468,0.0,1.0
1624705387.09375,0,0,0.0,0.0,1.0
1624705387.5625,0,0,22.54905128753834,0.0,1.0
1624705388.03125,0,0,36.875076057348615,0.0,1.0
1624705388.5,0,0,0.0,0.0,1.0
1624705388.96875,0,0,70.11278467866539,0.0,1.0
1624705389.4375,0,0,0.0,0.0,1.0
1624705389.90625,0,0,10.575599064870516,0.0,1.0
1624705390.375,0,0,0.0,0.0,1.0
1624705390.84375,0,0,26.174554147343272,0.0,1.0
1624705391.3125,0,0,24.082854112762867,0.0,1.0
1624705391.78125,0,0,23.106124210437507,0.0,1.0
1624705392.25,0,0,-1.9258025162368533,0.0,1.0
1624705392.71875,0,0,3.7952003725720322,0.0,1.0
1624705393.1875,0,0,171.01595236062113,0.0,1.0
1624705393.65625,0,0,-36.23392249521999,0.0,1.0
1624705394.125,0,0,47.55848029920814,0.0,1.0
1624705394.59375,0,0,0.0,0.0,1.0
1624705395.0625,0,0,147.38088559038331,0.0,1.0
1624705395.53125,0,0,0.0,0.0,1.0
1624705396.0,0,0,0.0,0.0,1.0
1624705396.46875,0,0,19.534534813129756,0.0,1.0
1624705396.9375,0,0,0.0,0.0,1.0
1624705397.40625,0,0,149.67275513416214,0.0,1.0
1624705397.875,0,0,-36.45759499214038,0.0,1.0
1624705398.34375,0,0,29.84309158440062,0.0,1.0
1624705398.8125,0,0,0.0,0.0,1.0
1624705399.28125,0,0,270.35185876257515,0.0,1.0
1624705399.75,0,0,0.0,0.0,1.0
1624705400.21875,0,0,49.12555198488633,0.0,1.0
1624705400.6875,0,0,26.092962354227847,0.0,1.0
1624705401.15625,0,0,97.14237315584151,0.0,1.0
1624705401.625,0,0,0.0,0.0,1.0
1624705402.09375,0,0,97.07409700390399,0.0,1.0
1624705402.5625,0,0,0.0,0.0,1.0
1624705403.03125,0,0,162.46818283055467,0.0,1.0
1624705403.5,0,0,0.0,0.0,1.0
1624705403.96875,0,0,194.19038489996692,0.0,1.0
1624705404.4375,0,0,0.0,0.0,1.0
1624705404.90625,0,0,0.0,0.0,1.0
1624705405.375,0,0,195.48032635657984,0.0,1.0
1624705405.84375,0,0,-8.144391142535126,0.0,1.0
1624705406.3125,0,0,54.54014429436791,0.0,1.0
1624705406.78125,0,0,0.0,0.0,1.0
1624705407.25,0,0,183.05850283203705,0.0,1.0
1624705407.71875,0,0,0.0,0.0,1.0
1624705408.1875,0,0,79.5663323779985,0.0,1.0
1624705408.65625,0,0,0.41358104638132415,0.0,1.0
1624705409.125,0,0,0.0,0.0,1.0
1624705409.59375,0,0,0.0,0.0,1.0
1624705410.0625,0,0,72.04483613603588,0.0,1.0
1624705410.53125,0,0,0.0,0.0,1.0
1624705411.0,0,0,54.146523879164384,0.0,1.0
1624705411.46875,0,0,76.50685142366133,0.0,1.0
1624705411.9375,0,0,22.315589183062333,0.0,1.0
1624705412.40625,0,0,12.283340076863988,0.0,1.0
1624705412.875,0,0,0.0,0.0,1.0
1624705413.34375,0,0,237.51369505266143,0.0,1.0
1624705413.8125,0,0,0.0,0.0,1.0
1624705414.28125,0,0,74.31433885092268,0.0,1.0
1624705414.75,0,0,0.0,0.0,1.0
1624705415.21875,0,0,147.10616979820287,0.0,1.0
1624705415.6875,0,0,0.0,0.0,1.0
1624705416.15625,0,0,70.78395752154852,0.0,1.0
1624705416.625,0,0,44.75706835409563,0.0,1.0
1624705417.09375,0,0,0.0,0.0,1.0
1624705417.5625,0,0,135.7124040884422,0.0,1.0
1624705418.03125,0,0,0.0,0.0,1.0
1624705418.5,0,0,51.16820434354326,0.0,1.0
1624705418.96875,0,0,62.896510515134075,0.0,1.0
1624705419.4375,0,0,0.0,0.0,1.0
1624705419.90625,0,0,0.0,0.0,1.0
1624705420.375,0,0,107.5386301410979,0.0,1.0
1624705420.84375,0,0,33.30606044709727,0.0,1.0
1624705421.3125,0,0,123.99533168262255,0.0,1.0
1624705421.78125,0,0,0.0,0.0,1.0
1624705422.25,0,0,68.10796611979322,0.0,1.0
1624705422.71875,0,0,0.0,0.0,1.0
1624705423.1875,0,0,41.77543761339913,0.0,1.0
1624705423.65625,0,0,33.063397772749106,0.0,1.0
1624705424.125,0,0,31.1855340337267,0.0,1.0
1624705424.59375,0,0,22.96644502922883,0.0,1.0
1624705425.0625,0,0,0.0,0.0,1.0
1624705425.53125,0,0,113.54037261602296,0.0,1.0
1624705426.0,0,0,43.53142131961846,0.0,1.0
1624705426.46875,0,0,0.0,0.0,1.0
1624705426.9375,0,0,0.0,0.0,1.0
1624705427.40625,0,0,135.543873189613,0.0,1.0
1624705427.875,0,0,0.0,0.0,1.0
1624705428.34375,0,0,0.0,0.0,1.0
1624705428.8125,0,0,17.100659580383468,0.0,1.0
1624705429.28125,0,0,123.61212229455406,0.0,1.0
1624705429.75,0,0,0.0,0.0,1.0
1624705430.21875,0,0,38.15044467735557,0.0,1.0
1624705430.6875,0,0,0.0,0.0,1.0
1624705431.15625,0,0,88.97533872446373,0.0,1.0
1624705431.625,0,0,-23.961634378963797,0.0,1.0
1624705432.09375,0,0,-3.80567309540901,0.0,1.0
1624705432.5625,0,0,0.0,0.0,1.0
1624705433.03125,0,0,0.0,0.0,1.0
1624705433.5,0,0,0.0,0.0,1.0
1624705433.96875,0,0,73.65160333092803,0.0,1.0
1624705434.4375,0,0,0.0,0.0,1.0
1624705434.90625,0,0,134.5888720274647,0.0,1.0
1624705435.375,0,0,148.66410886047782,0.0,1.0
1624705435.84375,0,0,0.0,0.0,1.0
1624705436.3125,0,0,51.679907452151106,0.0,1.0
1624705436.78125,0,0,14.180595014493234,0.0,1.0
1624705437.25,0,0,0.0,0.0,1.0
1624705437.71875,0,0,94.74813150509196,0.0,1.0
1624705438.1875,0,0,-54.22395825425565,0.0,1.0
1624705438.65625,0,0,84.81665137257774,0.0,1.0
1624705439.125,0,0,90.05767077696588,0.0,1.0
1624705439.59375,0,0,-55.513353225852626,0.0,1.0
1624705440.0625,0,0,173.0228005398431,0.0,1.0
1624705440.53125,0,0,81.80724540121373,0.0,1.0
1624705441.0,0,0,0.0,0.0,1.0
1624705441.46875,0,0,19.83658028884774,0.0,1.0
1624705441.9375,0,0,42.96678553653711,0.0,1.0
1624705442.40625,0,0,20.108857234194197,0.0,1.0
1624705442.875,0,0,51.16016333427673,0.0,1.0
1624705443.34375,0,0,0.0,0.0,1.0
1624705443.8125,0,0,27.552238975586313,0.0,1.0
1624705444.28125,0,0,0.0,0.0,1.0
1624705444.75,0,0,31.91327436521153,0.0,1.0
1624705445.21875,0,0,0.0,0.0,1.0
1624705445.6875,0,0,24.938288580794083,0.0,1.0
1624705446.15625,0,0,0.0,0.0,1.0
1624705446.625,0,0,39.77496721412055,0.0,1.0
1624705447.09375,0,0,0.0,0.0,1.0
1624705447.5625,0,0,28.372200042483687,0.0,1.0
1624705448.03125,0,0,97.72331520849572,0.0,1.0
1624705448.5,0,0,0.0,0.0,1.0
1624705448.96875,0,0,11.617460001367892,0.0,1.0
1624705449.4375,0,0,112.05267706215879,0.0,1.0
1624705449.90625,0,0,0.0,0.0,1.0
1624705450.375,0,0,20.283512615511743,0.0,1.0
1624705450.84375,0,0,40.037076986758464,0.0,1.0
1624705451.3125,0,0,0.0,0.0,1.0
1624705451.78125,0,0,20.09476337126438,0.0,1.0
1624705452.25,0,0,0.0,0.0,1.0
1624705452.71875,0,0,104.78096701922166,0.0,1.0
1624705453.1875,0,0,0.0,0.0,1.0
1624705453.65625,0,0,27.794433388633447,0.0,1.0
1624705454.125,0,0,120.24604486561944,0.0,1.0
1624705454.59375,0,0,-1.8151969112839441,0.0,1.0
1624705455.0625,0,0,26.34466577409057,0.0,1.0
1624705455.53125,0,0,0.0,0.0,1.0
1624705456.0,0,0,135.3927215608083,0.0,1.0
1624705456.46875,0,0,0.0,0.0,1.0
1624705456.9375,0,0,58.042692334186036,0.0,1.0
1624705457.40625,0,0,-12.086984366136019,0.0,1.0
1624705457.875,0,0,-22.390331217741196,0.0,1.0
1624705458.34375,0,0,184.85231665832728,0.0,1.0
1624705458.8125,0,0,0.0,0.0,1.0
1624705459.28125,0,0,45.61218472335157,0.0,1.0
1624705459.75,0,0,22.446423806182775,0.0,1.0
1624705460.21875,0,0,0.0,0.0,1.0
1624705460.6875,0,0,90.43645644941861,0.0,1.0
1624705461.15625,0,0,29.352498709628474,0.0,1.0
1624705461.625,0,0,0.0,0.0,1.0
1624705462.09375,0,0,148.27235172682236,0.0,1.0
1624705462.5625,0,0,0.0,0.0,1.0
1624705463.03125,0,0,66.97050312818487,0.0,1.0
1624705463.5,0,0,0.0,0.0,1.0
1624705463.96875,0,0,12.871881509556465,0.0,1.0
1624705464.4375,0,0,103.27107493351232,0.0,1.0
1624705464.90625,0,0,250.3372074247715,0.0,1.0
1624705465.375,0,0,62.72014282219024,0.0,1.0
1624705465.84375,0,0,0.0,0.0,1.0
1624705466.3125,0,0,73.60637912344443,0.0,1.0
1624705466.78125,0,0,202.59759636661659,0.0,1.0
1624705467.25,0,0,77.37415154321558,0.0,1.0
1624705467.71875,0,0,0.0,0.0,1.0
1624705468.1875,0,0,123.72847471282077,0.0,1.0
1624705468.65625,0,0,145.2277517730147,0.0,1.0
1624705469.125,0,0,0.0,0.0,1.0
1624705469.59375,0,0,85.37705727067943,0.0,1.0
1624705470.0625,0,0,52.740766721288,0.0,1.0
1624705470.53125,0,0,18.81222318857476,0.0,1.0
1624705471.0,0,0,64.4577848538859,0.0,1.0
1624705471.46875,0,0,92.07032051610038,0.0,1.0
1624705471.9375,0,0,196.0144397311454,0.0,1.0
1624705472.40625,0,0,0.0,0.0,1.0
1624705472.875,0,0,280.5401600548588,0.0,1.0
1624705473.34375,0,0,0.0,0.0,1.0
1624705473.8125,0,0,0.0,0.0,1.0
1624705474.28125,0,0,152.87233791569,0.0,1.0
1624705474.75,0,0,82.6080626788357,0.0,1.0
1624705475.21875,0,0,7.320124368387618,0.0,1.0
1624705475.6875,0,0,60.891678580662926,0.0,1.0
1624705476.15625,0,0,38.46963603100577,0.0,1.0
1624705476.625,0,0,0.0,0.0,1.0
1624705477.09375,0,0,0.0,0.0,1.0
1624705477.5625,0,0,0.0,0.0,1.0
1624705478.03125,0,0,186.2321429003198,0.0,1.0
1624705478.5,0,0,0.0,0.0,1.0
1624705478.96875,0,0,64.03831965423463,0.0,1.0
1624705479.4375,0,0,-13.740667064255403,0.0,1.0
1624705479.90625,0,0,0.0,0.0,1.0
1624705480.375,0,0,0.0,0.0,1.0
1624705480.84375,0,0,0.0,0.0,1.0
1624705481.3125,0,0,0.0,0.0,1.0
1624705481.78125,0,0,0.0,0.0,1.0
1624705482.25,0,0,0.0,0.0,1.0
1624705482.71875,0,0,29.20968543868743,0.0,1.0
1624705483.1875,0,0,0.0,0.0,1.0
1624705483.65625,0,0,193.6130663001326,0.0,1.0
1624705484.125,0,0,0.0,0.0,1.0
1624705484.59375,0,0,57.045199347702614,0.0,1.0
1624705485.0625,0,0,15.350936938095796,0.0,1.0
1624705485.53125,0,0,0.0,0.0,1.0
1624705486.0,0,0,0.0,0.0,1.0
1624705486.46875,0,0,208.01602343182174,0.0,1.0
1624705486.9375,0,0,-60.9627243737843,0.0,1.0
1624705487.40625,0,0,0.0,0.0,1.0
1624705487.875,0,0,185.82473784139825,0.0,1.0
1624705488.34375,0,0,32.62444543256264,0.0,1.0
1624705488.8125,0,0,44.04805330991287,0.0,1.0
1624705489.28125,0,0,0.0,0.0,1.0
1624705489.75,0,0,42.27472461114833,0.0,1.0
1624705490.21875,0,0,214.73079166286564,0.0,1.0
1624705490.6875,0,0,0.0,0.0,1.0
1624705491.15625,0,0,0.0,0.0,1.0
1624705491.625,0,0,172.19663814758843,0.0,1.0
1624705492.09375,0,0,0.0,0.0,1.0
1624705492.5625,0,0,54.26057646848357,0.0,1.0
1624705493.03125,0,0,21.506112726707126,0.0,1.0
1624705493.5,0,0,107.06890332785424,0.0,1.0
1624705493.96875,0,0,175.22040560702084,0.0,1.0
1624705494.4375,0,0,0.0,0.0,1.0
1624705494.90625,0,0,79.86434521742689,0.0,1.0
1624705495.375,0,0,0.0,0.0,1.0
1624705495.84375,0,0,178.00647907300473,0.0,1.0
1624705496.3125,0,0,167.5247346258607,0.0,1.0
1624705496.78125,0,0,52.87997048882376,0.0,1.0
1624705497.25,0,0,28.552203681620494,0.0,1.0
1624705497.71875,0,0,234.10511405754087,0.0,1.0
1624705498.1875,0,0,79.47111782144195,0.0,1.0
1624705498.65625,0,0,78.37800946894235,0.0,1.0
1624705499.125,0,0,60.17774604366267,0.0,1.0
1624705499.59375,0,0,-2.9397861253828568,0.0,1.0
1624705500.0625,0,0,45.16549261988518,0.0,1.0
1624705500.53125,0,0,50.61465573990378,0.0,1.0
1624705501.0,0,0,72.13743872001793,0.0,1.0
1624705501.46875,0,0,55.37622240057196,0.0,1.0
1624705501.9375,0,0,73.43436532379282,0.0,1.0
1624705502.40625,0,0,63.139416214302166,0.0,1.0
1624705502.875,0,0,0.0,0.0,1.0
1624705503.34375,0,0,10.328427338435617,0.0,1.0
1624705503.8125,0,0,0.0,0.0,1.0
1624705504.28125,0,0,0.0,0.0,1.0
1624705504.75,0,0,0.0,0.0,1.0
1624705505.21875,0,0,230.00284458718755,0.0,1.0
1624705505.6875,0,0,0.0,0.0,1.0
1624705506.15625,0,0,0.0,0.0,1.0
1624705506.625,0,0,110.33758965355686,0.0,1.0
1624705507.09375,0,0,10.558382889157693,0.0,1.0
1624705507.5625,0,0,11.734933418383314,0.0,1.0
1624705508.03125,0,0,70.03648729041127,0.0,1.0
1624705508.5,0,0,30.110905737116987,0.0,1.0
1624705508.96875,0,0,30.468581331006796,0.0,1.0
1624705509.4375,0,0,43.15189068305283,0.0,1.0
1624705509.90625,0,0,51.53589471518797,0.0,1.0
1624705510.375,0,0,0.0,0.0,1.0
1624705510.84375,0,0,0.0,0.0,1.0
1624705511.3125,0,0,169.00226581378163,0.0,1.0
1624705511.78125,0,0,49.77204287181887,0.0,1.0
1624705512.25,0,0,0.0,0.0,1.0
1624705512.71875,0,0,209.2816500748831,0.0,1.0
1624705513.1875,0,0,26.22308621353977,0.0,1.0
1624705513.65625,0,0,0.0,0.0,1.0
1624705514.125,0,0,0.0,0.0,1.0
1624705514.59375,0,0,153.2804538734657,0.0,1.0
1624705515.0625,0,0,21.2326957073296,0.0,1.0
1624705515.53125,0,0,47.66122058162461,0.0,1.0
1624705516.0,0,0,0.0,0.0,1.0
1624705516.46875,0,0,78.70871722249946,0.0,1.0
1624705516.9375,0,0,136.5022872806738,0.0,1.0
1624705517.40625,0,0,-15.427101515947392,0.0,1.0
1624705517.875,0,0,103.01727114773504,0.0,1.0
1624705518.34375,0,0,156.01222077465175,0.0,1.0
1624705518.8125,0,0,0.0,0.0,1.0
1624705519.28125,0,0,172.5116113985399,0.0,1.0
1624705519.75,0,0,68.47119881035836,0.0,1.0
1624705520.21875,0,0,46.078843763137,0.0,1.0
1624705520.6875,0,0,181.2048112653185,0.0,1.0
1624705521.15625,0,0,0.0,0.0,1.0
1624705521.625,0,0,53.826001624871914,0.0,1.0
1624705522.09375,0,0,5.291915497784043,0.0,1.0
1624705522.5625,0,0,0.0,0.0,1.0
1624705523.03125,0,0,166.01503226266433,0.0,1.0
1624705523.5,0,0,77.58801340842376,0.0,1.0
1624705523.96875,0,0,0.0,0.0,1.0
1624705524.4375,0,0,40.941724128531085,0.0,1.0
1624705524.90625,0,0,80.83301424457349,0.0,1.0
1624705525.375,0,0,0.0,0.0,1.0
1624705525.84375,0,0,23.1161672594517,0.0,1.0
1624705526.3125,0,0,0.0,0.0,1.0
1624705526.78125,0,0,188.3170759214718,0.0,1.0
1624705527.25,0,0,0.0,0.0,1.0
1624705527.71875,0,0,66.28087410025633,0.0,1.0
1624705528.1875,0,0,69.5012597279684,0.0,1.0
1624705528.65625,0,0,186.68972462251915,0.0,1.0
1624705529.125,0,0,-15.39614288753667,0.0,1.0
1624705529.59375,0,0,24.200983806457877,0.0,1.0
1624705530.0625,0,0,0.0,0.0,1.0
1624705530.53125,0,0,29.542445779590988,0.0,1.0
1624705531.0,0,0,140.59942970674294,0.0,1.0
1624705531.46875,0,0,0.0,0.0,1.0
1624705531.9375,0,0,49.15572247467359,0.0,1.0
1624705532.40625,0,0,0.0,0.0,1.0
1624705532.875,0,0,0.0,0.0,1.0
1624705533.34375,0,0,68.46443411445114,0.0,1.0
1624705533.8125,0,0,0.0,0.0,1.0
1624705534.28125,0,0,12.245947186538556,0.0,1.0
1624705534.75,0,0,154.08969558932586,0.0,1.0
1624705535.21875,0,0,0.0,0.0,1.0
1624705535.6875,0,0,123.39062259745354,0.0,1.0
1624705536.15625,0,0,0.0,0.0,1.0
1624705536.625,0,0,28.979712430902058,0.0,1.0
1624705537.09375,0,0,31.90239871278403,0.0,1.0
1624705537.5625,0,0,139.936185703079,0.0,1.0
1624705538.03125,0,0,0.0,0.0,1.0
1624705538.5,0,0,0.0,0.0,1.0
1624705538.96875,0,0,172.26107619931025,0.0,1.0
1624705539.4375,0,0,33.60939689910046,0.0,1.0
1624705539.90625,0,0,57.38562966150278,0.0,1.0
1624705540.375,0,0,93.37484782811926,0.0,1.0
1624705540.84375,0,0,0.0,0.0,1.0
1624705541.3125,0,0,114.69842546672136,0.0,1.0
1624705541.78125,0,0,0.0,0.0,1.0
1624705542.25,0,0,103.64388381634284,0.0,1.0
1624705542.71875,0,0,46.45092579634784,0.0,1.0
1624705543.1875,0,0,0.0,0.0,1.0
1624705543.65625,0,0,162.29047490742758,0.0,1.0
1624705544.125,0,0,0.0,0.0,1.0
1624705544.59375,0,0,73.79024687640616,0.0,1.0
1624705545.0625,0,0,211.97405864433682,0.0,1.0
1624705545.53125,0,0,0.0,0.0,1.0
1624705546.0,0,0,52.096656152046805,0.0,1.0
1624705546.46875,0,0,0.0,0.0,1.0
1624705546.9375,0,0,158.56149961582574,0.0,1.0
1624705547.40625,0,0,63.891971305030076,0.0,1.0
1624705547.875,0,0,0.0,0.0,1.0
1624705548.34375,0,0,12.273346889953485,0.0,1.0
1624705548.8125,0,0,0.0,0.0,1.0
1624705549.28125,0,0,194.65251337255444,0.0,1.0
1624705549.75,0,0,51.509003916837514,0.0,1.0
1624705550.21875,0,0,0.0,0.0,1.0
1624705550.6875,0,0,78.95130305717902,0.0,1.0
1624705551.15625,0,0,86.96342774069801,0.0,1.0
1624705551.625,0,0,10.624346411068833,0.0,1.0
1624705552.09375,0,0,78.67901947131207,0.0,1.0
1624705552.5625,0,0,46.07732960501807,0.0,1.0
1624705553.03125,0,0,4.444728344502948,0.0,1.0
1624705553.5,0,0,137.57366187410943,0.0,1.0
1624705553.96875,0,0,-74.79110861639866,0.0,1.0
1624705554.4375,0,0,20.28868128842913,0.0,1.0
1624705554.90625,0,0,103.89994183809185,0.0,1.0
1624705555.375,0,0,73.59642293883881,0.0,1.0
1624705555.84375,0,0,0.0,0.0,1.0
1624705556.3125,0,0,42.742629911598186,0.0,1.0
1624705556.78125,0,0,139.36142880417447,0.0,1.0
1624705557.25,0,0,0.0,0.0,1.0
1624705557.71875,0,0,38.76150311433347,0.0,1.0
1624705558.1875,0,0,0.0,0.0,1.0
1624705558.65625,0,0,369.29762123401974,0.0,1.0
1624705559.125,0,0,-27.021349964851495,0.0,1.0
1624705559.59375,0,0,0.0,0.0,1.0
1624705560.0625,0,0,143.07776194701705,0.0,1.0
1624705560.53125,0,0,58.7851649744804,0.0,1.0
1624705561.0,0,0,0.0,0.0,1.0
1624705561.46875,0,0,0.0,0.0,1.0
1624705561.9375,0,0,19.05801094034687,0.0,1.0
1624705562.40625,0,0,0.0,0.0,1.0
1624705562.875,0,0,33.175978870342256,0.0,1.0
1624705563.34375,0,0,0.0,0.0,1.0
1624705563.8125,0,0,22.20065255436313,0.0,1.0
1624705564.28125,0,0,0.0,0.0,1.0
1624705564.75,0,0,45.662490656207595,0.0,1.0
1624705565.21875,0,0,-6.974772081380531,0.0,1.0
1624705565.6875,0,0,40.791773323499534,0.0,1.0
1624705566.15625,0,0,88.9632631903514,0.0,1.0
1624705566.625,0,0,3.8083908550617127,0.0,1.0
1624705567.09375,0,0,53.60979522852968,0.0,1.0
1624705567.5625,0,0,34.7115675467621,0.0,1.0
1624705568.03125,0,0,0.0,0.0,1.0
1624705568.5,0,0,24.87514904421096,0.0,1.0
1624705568.96875,0,0,0.0,0.0,1.0
1624705569.4375,0,0,0.0,0.0,1.0
1624705569.90625,0,0,127.28351309925829,0.0,1.0
1624705570.375,0,0,29.572389911687747,0.0,1.0
1624705570.84375,0,0,-0.48581771223594966,0.0,1.0
1624705571.3125,0,0,70.99254345094752,0.0,1.0
1624705571.78125,0,0,84.57660150140651,0.0,1.0
1624705572.25,0,0,-6.7014343762275725,0.0,1.0
1624705572.71875,0,0,0.0,0.0,1.0
1624705573.1875,0,0,44.7486169385947,0.0,1.0
1624705573.65625,0,0,26.790139085912994,0.0,1.0
1624705574.125,0,0,-30.89759256841668,0.0,1.0
1624705574.59375,0,0,28.238823599136712,0.0,1.0
1624705575.0625,0,0,0.0,0.0,1.0
1624705575.53125,0,0,68.00820240446701,0.0,1.0
1624705576.0,0,0,83.33899257145067,0.0,1.0
1624705576.46875,0,0,15.996249621050973,0.0,1.0
1624705576.9375,0,0,0.0,0.0,1.0
1624705577.40625,0,0,61.96156870307702,0.0,1.0
1624705577.875,0,0,229.48021191970895,0.0,1.0
1624705578.34375,0,0,0.0,0.0,1.0
1624705578.8125,0,0,53.08923932033775,0.0,1.0
1624705579.28125,0,0,0.0,0.0,1.0
1624705579.75,0,0,199.63395326005187,0.0,1.0
1624705580.21875,0,0,0.0,0.0,1.0
1624705580.6875,0,0,0.0,0.0,1.0
1624705581.15625,0,0,0.0,0.0,1.0
1624705581.625,0,0,101.83498385847855,0.0,1.0
1624705582.09375,0,0,77.46042303220209,0.0,1.0
1624705582.5625,0,0,0.0,0.0,1.0
1624705583.03125,0,0,0.0,0.0,1.0
1624705583.5,0,0,26.179999106888143,0.0,1.0
1624705583.96875,0,0,170.4085599113685,0.0,1.0
1624705584.4375,0,0,0.0,0.0,1.0
1624705584.90625,0,0,96.07142589113352,0.0,1.0
1624705585.375,0,0,187.38991630587412,0.0,1.0
1624705585.84375,0,0,0.0,0.0,1.0
1624705586.3125,0,0,34.77556318051164,0.0,1.0
1624705586.78125,0,0,41.1777916330426,0.0,1.0
1624705587.25,0,0,0.0,0.0,1.0
1624705587.71875,0,0,193.80994070167446,0.0,1.0
1624705588.1875,0,0,95.52586821884138,0.0,1.0
1624705588.65625,0,0,0.0,0.0,1.0
1624705589.125,0,0,0.0,0.0,1.0
1624705589.59375,0,0,135.6575678199426,0.0,1.0
1624705590.0625,0,0,0.0,0.0,1.0
1624705590.53125,0,0,49.06898393968338,0.0,1.0
1624705591.0,0,0,0.0,0.0,1.0
1624705591.46875,0,0,0.0,0.0,1.0
1624705591.9375,0,0,174.552444500555,0.0,1.0
1624705592.40625,0,0,72.77828817343641,0.0,1.0
1624705592.875,0,0,0.0,0.0,1.0
1624705593.34375,0,0,0.0,0.0,1.0
1624705593.8125,0,0,168.99599597401217,0.0,1.0
1624705594.28125,0,0,0.0,0.0,1.0
1624705594.75,0,0,0.0,0.0,1.0
1624705595.21875,0,0,0.0,0.0,1.0
1624705595.6875,0,0,70.53823182338657,0.0,1.0
1624705596.15625,0,0,123.44598543514772,0.0,1.0
1624705596.625,0,0,7.818553535887292,0.0,1.0
1624705597.09375,0,0,39.51068577638109,0.0,1.0
1624705597.5625,0,0,0.0,0.0,1.0
1624705598.03125,0,0,136.05124257482126,0.0,1.0
1624705598.5,0,0,60.57805104675567,0.0,1.0
1624705598.96875,0,0,0.0,0.0,1.0
1624705599.4375,0,0,189.29212443896216,0.0,1.0
1624705599.90625,0,0,0.0,0.0,1.0
1624705600.375,0,0,68.6631378651665,0.0,1.0
1624705600.84375,0,0,0.0,0.0,1.0
1624705601.3125,0,0,89.63855662079926,0.0,1.0
1624705601.78125,0,0,108.73484670629787,0.0,1.0
1624705602.25,0,0,-17.84847262852184,0.0,1.0
1624705602.71875,0,0,73.23970336218501,0.0,1.0
1624705603.1875,0,0,0.0,0.0,1.0
1624705603.65625,0,0,152.88322567956234,0.0,1.0
1624705604.125,0,0,65.56050311542577,0.0,1.0
1624705604.59375,0,0,26.51833044500093,0.0,1.0
1624705605.0625,0,0,-9.899942302007087,0.0,1.0
1624705605.53125,0,0,157.45672438189231,0.0,1.0
1624705606.0,0,0,0.0,0.0,1.0
1624705606.46875,0,0,0.0,0.0,1.0
1624705606.9375,0,0,0.0,0.0,1.0
1624705607.40625,0,0,143.8126118467916,0.0,1.0
1624705607.875,0,0,0.0,0.0,1.0
1624705608.34375,0,0,68.20106732502727,0.0,1.0
1624705608.8125,0,0,0.0,0.0,1.0
1624705609.28125,0,0,0.0,0.0,1.0
1624705609.75,0,0,125.20950482906647,0.0,1.0
1624705610.21875,0,0,0.0,0.0,1.0
1624705610.6875,0,0,33.9337301465074,0.0,1.0
1624705611.15625,0,0,14.489620337219604,0.0,1.0
1624705611.625,0,0,196.0016443228563,0.0,1.0
1624705612.09375,0,0,0.0,0.0,1.0
1624705612.5625,0,0,96.1633791976831,0.0,1.0
1624705613.03125,0,0,0.0,0.0,1.0
1624705613.5,0,0,27.77853571911395,0.0,1.0
1624705613.96875,0,0,0.0,0.0,1.0
1624705614.4375,0,0,35.99207717744975,0.0,1.0
1624705614.90625,0,0,30.10626989043127,0.0,1.0
1624705615.375,0,0,12.126532143324194,0.0,1.0
1624705615.84375,0,0,26.213203212993086,0.0,1.0
1624705616.3125,0,0,0.0,0.0,1.0
1624705616.78125,0,0,24.837178445679168,0.0,1.0
1624705617.25,0,0,43.93292154202835,0.0,1.0
1624705617.71875,0,0,0.0,0.0,1.0
1624705618.1875,0,0,93.59123204234554,0.0,1.0
1624705618.65625,0,0,0.0,0.0,1.0
1624705619.125,0,0,0.0,0.0,1.0
1624705619.59375,0,0,30.05673368745191,0.0,1.0
1624705620.0625,0,0,0.0,0.0,1.0
1624705620.53125,0,0,58.408390493971176,0.0,1.0
1624705621.0,0,0,0.0,0.0,1.0
1624705621.46875,0,0,39.965506747517814,0.0,1.0
1624705621.9375,0,0,13.584327632996384,0.0,1.0
1624705622.40625,0,0,0.0,0.0,1.0
1624705622.875,0,0,19.699339078421858,0.0,1.0
1624705623.34375,0,0,36.89346943016702,0.0,1.0
1624705623.8125,0,0,0.0,0.0,1.0
1624705624.28125,0,0,16.27682927335247,0.0,1.0
1624705624.75,0,0,121.38521775152242,0.0,1.0
1624705625.21875,0,0,210.15784368455508,0.0,1.0
1624705625.6875,0,0,0.0,0.0,1.0
1624705626.15625,0,0,156.33238712214302,0.0,1.0
1624705626.625,0,0,0.0,0.0,1.0
1624705627.09375,0,0,39.997247256017744,0.0,1.0
1624705627.5625,0,0,0.0,0.0,1.0
1624705628.03125,0,0,5.187169075060095,0.0,1.0
1624705628.5,0,0,244.43398985508205,0.0,1.0
1624705628.96875,0,0,0.0,0.0,1.0
1624705629.4375,0,0,39.0547398171304,0.0,1.0
1624705629.90625,0,0,0.0,0.0,1.0
1624705630.375,0,0,194.7742976471322,0.0,1.0
1624705630.84375,0,0,0.0,0.0,1.0
1624705631.3125,0,0,7.06885124865433,0.0,1.0
1624705631.78125,0,0,0.0,0.0,1.0
1624705632.25,0,0,0.0,0.0,1.0
1624705632.71875,0,0,0.0,0.0,1.0
1624705633.1875,0,0,66.04842866186345,0.0,1.0
1624705633.65625,0,0,47.277456076528566,0.0,1.0
1624705634.125,0,0,0.0,0.0,1.0
1624705634.59375,0,0,41.34375414009327,0.0,1.0
1624705635.0625,0,0,0.0,0.0,1.0
1624705635.53125,0,0,50.60510333473478,0.0,1.0
1624705636.0,0,0,7.28879677755674,0.0,1.0
1624705636.46875,0,0,0.0,0.0,1.0
1624705636.9375,0,0,211.5603863643531,0.0,1.0
1624705637.40625,0,0,0.0,0.0,1.0
1624705637.875,0,0,0.0,0.0,1.0
1624705638.34375,0,0,0.0,0.0,1.0
1624705638.8125,0,0,41.353772600789206,0.0,1.0
1624705639.28125,0,0,115.58931551732763,0.0,1.0
1624705639.75,0,0,32.30275254878984,0.0,1.0
1624705640.21875,0,0,33.633193376214734,0.0,1.0
1624705640.6875,0,0,147.8038177042672,0.0,1.0
1624705641.15625,0,0,0.0,0.0,1.0
1624705641.625,0,0,61.95556226558933,0.0,1.0
1624705642.09375,0,0,0.0,0.0,1.0
1624705642.5625,0,0,6.214879503380742,0.0,1.0
1624705643.03125,0,0,10.229724942118045,0.0,1.0
1624705643.5,0,0,192.8856137230721,0.0,1.0
1624705643.96875,0,0,0.0,0.0,1.0
1624705644.4375,0,0,0.0,0.0,1.0
1624705644.90625,0,0,140.2272985315615,0.0,1.0
1624705645.375,0,0,25.653273304967453,0.0,1.0
1624705645.84375,0,0,69.37325151409885,0.0,1.0
1624705646.3125,0,0,0.0,0.0,1.0
1624705646.78125,0,0,57.050607052838956,0.0,1.0
1624705647.25,0,0,0.0,0.0,1.0
1624705647.71875,0,0,226.48859929769392,0.0,1.0
1624705648.1875,0,0,0.0,0.0,1.0
1624705648.65625,0,0,52.44800749456883,0.0,1.0
1624705649.125,0,0,0.0,0.0,1.0
1624705649.59375,0,0,127.98508379942183,0.0,1.0
1624705650.0625,0,0,34.22579335496402,0.0,1.0
1624705650.53125,0,0,52.219276601078334,0.0,1.0
1624705651.0,0,0,46.98560669708678,0.0,1.0
1624705651.46875,0,0,0.0,0.0,1.0
1624705651.9375,0,0,121.77373518176563,0.0,1.0
1624705652.40625,0,0,0.0,0.0,1.0
1624705652.875,0,0,63.401304291410845,0.0,1.0
1624705653.34375,0,0,154.67962126042727,0.0,1.0
1624705653.8125,0,0,29.26088008375523,0.0,1.0
1624705654.28125,0,0,0.0,0.0,1.0
1624705654.75,0,0,204.39349231886337,0.0,1.0
1624705655.21875,0,0,-13.47211864530571,0.0,1.0
1624705655.6875,0,0,59.762387248054075,0.0,1.0
1624705656.15625,0,0,0.0,0.0,1.0
1624705656.625,0,0,109.9481566851686,0.0,1.0
1624705657.09375,0,0,164.28962196292028,0.0,1.0
1624705657.5625,0,0,73.45749794505586,0.0,1.0
1624705658.03125,0,0,0.0,0.0,1.0
1624705658.5,0,0,0.0,0.0,1.0
1624705658.96875,0,0,0.0,0.0,1.0
1624705659.4375,0,0,54.96995382543234,0.0,1.0
1624705659.90625,0,0,67.75800231392566,0.0,1.0
1624705660.375,0,0,0.0,0.0,1.0
1624705660.84375,0,0,13.643259383045574,0.0,1.0
1624705661.3125,0,0,0.0,0.0,1.0
1624705661.78125,0,0,162.11482248185436,0.0,1.0
1624705662.25,0,0,0.0,0.0,1.0
1624705662.71875,0,0,114.73718540246635,0.0,1.0
1624705663.1875,0,0,0.0,0.0,1.0
1624705663.65625,0,0,14.438617449354407,0.0,1.0
1624705664.125,0,0,65.68308433386598,0.0,1.0
1624705664.59375,0,0,0.0,0.0,1.0
1624705665.0625,0,0,48.925833949431414,0.0,1.0
1624705665.53125,0,0,200.61059451796277,0.0,1.0
1624705666.0,0,0,0.0,0.0,1.0
1624705666.46875,0,0,152.24558057970216,0.0,1.0
1624705666.9375,0,0,81.40957191932115,0.0,1.0
1624705667.40625,0,0,0.0,0.0,1.0
1624705667.875,0,0,14.540163421375711,0.0,1.0
1624705668.34375,0,0,12.999145374513672,0.0,1.0
1624705668.8125,0,0,107.3878577798439,0.0,1.0
1624705669.28125,0,0,175.2099342851912,0.0,1.0
1624705669.75,0,0,53.2693994240341,0.0,1.0
1624705670.21875,0,0,37.10725785930774,0.0,1.0
1624705670.6875,0,0,0.0,0.0,1.0
1624705671.15625,0,0,0.0,0.0,1.0
1624705671.625,0,0,23.12726999666718,0.0,1.0
1624705672.09375,0,0,60.186223707930985,0.0,1.0
1624705672.5625,0,0,28.36544440279478,0.0,1.0
1624705673.03125,0,0,-38.22791396274448,0.0,1.0
1624705673.5,0,0,135.73567940164278,0.0,1.0
1624705673.96875,0,0,-34.00138142126722,0.0,1.0
1624705674.4375,0,0,42.43940146906856,0.0,1.0
1624705674.90625,0,0,0.0,0.0,1.0
1624705675.375,0,0,32.87670591659437,0.0,1.0
1624705675.84375,0,0,0.0,0.0,1.0
1624705676.3125,0,0,30.3348036003829,0.0,1.0
1624705676.78125,0,0,0.0,0.0,1.0
1624705677.25,0,0,0.0,0.0,1.0
1624705677.71875,0,0,28.736726305648887,0.0,1.0
1624705678.1875,0,0,0.0,0.0,1.0
1624705678.65625,0,0,24.13002921817992,0.0,1.0
1624705679.125,0,0,0.0,0.0,1.0
1624705679.59375,0,0,38.49545321540118,0.0,1.0
1624705680.0625,0,0,0.0,0.0,1.0
1624705680.53125,0,0,34.04160174351948,0.0,1.0
1624705681.0,0,0,0.0,0.0,1.0
1624705681.46875,0,0,27.725024571787504,0.0,1.0
1624705681.9375,0,0,32.96609207502643,0.0,1.0
1624705682.40625,0,0,0.0,0.0,1.0
1624705682.875,0,0,56.13401331972072,0.0,1.0
1624705683.34375,0,0,0.0,0.0,1.0
1624705683.8125,0,0,0.0,0.0,1.0
1624705684.28125,0,0,0.0,0.0,1.0
1624705684.75,0,0,85.77214527025814,0.0,1.0
1624705685.21875,0,0,73.14718172358538,0.0,1.0
1624705685.6875,0,0,-28.913857772671726,0.0,1.0
1624705686.15625,0,0,89.244673458839,0.0,1.0
1624705686.625,0,0,-0.12492671255703255,0.0,1.0
1624705687.09375,0,0,0.0,0.0,1.0
1624705687.5625,0,0,170.23997056460522,0.0,1.0
1624705688.03125,0,0,0.0,0.0,1.0
1624705688.5,0,0,63.967810805127264,0.0,1.0
1624705688.96875,0,0,0.0,0.0,1.0
1624705689.4375,0,0,8.078420645391446,0.0,1.0
1624705689.90625,0,0,0.0,0.0,1.0
1624705690.375,0,0,144.5663247971966,0.0,1.0
1624705690.84375,0,0,0.0,0.0,1.0
1624705691.3125,0,0,34.92634516738035,0.0,1.0
1624705691.78125,0,0,147.20155990213107,0.0,1.0
1624705692.25,0,0,0.0,0.0,1.0
1624705692.71875,0,0,79.95905581446104,0.0,1.0
1624705693.1875,0,0,0.0,0.0,1.0
1624705693.65625,0,0,0.0,0.0,1.0
1624705694.125,0,0,199.95538076523277,0.0,1.0
1624705694.59375,0,0,88.46109031756025,0.0,1.0
1624705695.0625,0,0,0.0,0.0,1.0
1624705695.53125,0,0,0.0,0.0,1.0
1624705696.0,0,0,102.66620161645173,0.0,1.0
1624705696.46875,0,0,10.117901368770088,0.0,1.0
1624705696.9375,0,0,45.527774349589386,0.0,1.0
1624705697.40625,0,0,0.0,0.0,1.0
1624705697.875,0,0,146.63916279834905,0.0,1.0
1624705698.34375,0,0,0.0,0.0,1.0
1624705698.8125,0,0,61.7974767438122,0.0,1.0
1624705699.28125,0,0,0.0,0.0,1.0
1624705699.75,0,0,173.38566485057063,0.0,1.0
1624705700.21875,0,0,0.0,0.0,1.0
1624705700.6875,0,0,46.121676461241066,0.0,1.0
1624705701.15625,0,0,0.0,0.0,1.0
1624705701.625,0,0,222.00735887704084,0.0,1.0
1624705702.09375,0,0,0.0,0.0,1.0
1624705702.5625,0,0,91.20631307740254,0.0,1.0
1624705703.03125,0,0,0.0,0.0,1.0
1624705703.5,0,0,40.99555741737776,0.0,1.0
1624705703.96875,0,0,0.0,0.0,1.0
1624705704.4375,0,0,125.21189828227133,0.0,1.0
1624705704.90625,0,0,27.70116152456612,0.0,1.0
1624705705.375,0,0,0.0,0.0,1.0
1624705705.84375,0,0,143.61553264506531,0.0,1.0
1624705706.3125,0,0,0.0,0.0,1.0
1624705706.78125,0,0,48.54384805748431,0.0,1.0
1624705707.25,0,0,0.0,0.0,1.0
1624705707.71875,0,0,130.94181958038436,0.0,1.0
1624705708.1875,0,0,28.268956650783178,0.0,1.0
1624705708.65625,0,0,0.0,0.0,1.0
1624705709.125,0,0,23.521420054047876,0.0,1.0
1624705709.59375,0,0,148.01875197089524,0.0,1.0
1624705710.0625,0,0,49.753999855239016,0.0,1.0
1624705710.53125,0,0,64.06795526436542,0.0,1.0
1624705711.0,0,0,0.0,0.0,1.0
1624705711.46875,0,0,20.473128996491916,0.0,1.0
1624705711.9375,0,0,135.81144702977272,0.0,1.0
1624705712.40625,0,0,-36.78301158298501,0.0,1.0
1624705712.875,0,0,42.12037098980073,0.0,1.0
1624705713.34375,0,0,0.0,0.0,1.0
1624705713.8125,0,0,140.532275518491,0.0,1.0
1624705714.28125,0,0,0.0,0.0,1.0
1624705714.75,0,0,54.985293647492455,0.0,1.0
1624705715.21875,0,0,0.0,0.0,1.0
1624705715.6875,0,0,92.7266070008704,0.0,1.0
1624705716.15625,0,0,0.0,0.0,1.0
1624705716.625,0,0,30.434318980939167,0.0,1.0
1624705717.09375,0,0,23.827352779290518,0.0,1.0
1624705717.5625,0,0,0.0,0.0,1.0
1624705718.03125,0,0,147.74122468997703,0.0,1.0
1624705718.5,0,0,62.92166693647957,0.0,1.0
1624705718.96875,0,0,0.0,0.0,1.0
1624705719.4375,0,0,0.0,0.0,1.0
1624705719.90625,0,0,67.59723755368776,0.0,1.0
1624705720.375,0,0,0.0,0.0,1.0
1624705720.84375,0,0,43.612057303021565,0.0,1.0
1624705721.3125,0,0,13.671688325142142,0.0,1.0
1624705721.78125,0,0,67.81623025146538,0.0,1.0
1624705722.25,0,0,41.728362717113065,0.0,1.0
1624705722.71875,0,0,5.688661775276383,0.0,1.0
1624705723.1875,0,0,0.0,0.0,1.0
1624705723.65625,0,0,193.8835188839049,0.0,1.0
1624705724.125,0,0,0.0,0.0,1.0
1624705724.59375,0,0,57.214277106639244,0.0,1.0
1624705725.0625,0,0,23.300441079862555,0.0,1.0
1624705725.53125,0,0,96.92723361029438,0.0,1.0
1624705726.0,0,0,0.0,0.0,1.0
1624705726.46875,0,0,55.55202889265246,0.0,1.0
1624705726.9375,0,0,5.705453232153349,0.0,1.0
1624705727.40625,0,0,0.0,0.0,1.0
1624705727.875,0,0,208.15825795615606,0.0,1.0
1624705728.34375,0,0,0.0,0.0,1.0
1624705728.8125,0,0,96.5801281265454,0.0,1.0
1624705729.28125,0,0,0.0,0.0,1.0
1624705729.75,0,0,129.6794543130359,0.0,1.0
1624705730.21875,0,0,0.0,0.0,1.0
1624705730.6875,0,0,61.36406521242399,0.0,1.0
1624705731.15625,0,0,26.28825108117911,0.0,1.0
1624705731.625,0,0,0.0,0.0,1.0
1624705732.09375,0,0,32.76096683320238,0.0,1.0
1624705732.5625,0,0,38.171514067313346,0.0,1.0
1624705733.03125,0,0,41.371501130538626,0.0,1.0
1624705733.5,0,0,0.0,0.0,1.0
1624705733.96875,0,0,29.17294132494064,0.0,1.0
1624705734.4375,0,0,25.431840140208227,0.0,1.0
1624705734.90625,0,0,0.0,0.0,1.0
1624705735.375,0,0,28.101479868232797,0.0,1.0
1624705735.84375,0,0,0.0,0.0,1.0
1624705736.3125,0,0,29.79467716058346,0.0,1.0
1624705736.78125,0,0,0.0,0.0,1.0
1624705737.25,0,0,34.715833591945774,0.0,1.0
1624705737.71875,0,0,0.0,0.0,1.0
1624705738.1875,0,0,24.263116630909494,0.0,1.0
1624705738.65625,0,0,0.0,0.0,1.0
1624705739.125,0,0,31.65472077697873,0.0,1.0
1624705739.59375,0,0,26.094880640800177,0.0,1.0
1624705740.0625,0,0,0.0,0.0,1.0
1624705740.53125,0,0,31.163175241586714,0.0,1.0
1624705741.0,0,0,0.0,0.0,1.0
1624705741.46875,0,0,16.642172311472724,0.0,1.0
1624705741.9375,0,0,0.0,0.0,1.0
1624705742.40625,0,0,28.587395774281415,0.0,1.0
1624705742.875,0,0,7.879465447092133,0.0,1.0
1624705743.34375,0,0,28.66907032430486,0.0,1.0
1624705743.8125,0,0,16.45919715054444,0.0,1.0
1624705744.28125,0,0,21.481620658890183,0.0,1.0
1624705744.75,0,0,21.389188730263506,0.0,1.0
1624705745.21875,0,0,0.0,0.0,1.0
1624705745.6875,0,0,38.01475509434578,0.0,1.0
1624705746.15625,0,0,259.03725968237774,0.0,1.0
1624705746.625,0,0,63.832512521824825,0.0,2.0
1624705747.09375,0,0,0.0,0.0,2.0
1624705747.5625,0,0,28.37679317137641,0.0,2.0
1624705748.03125,0,0,-7.454601326854377,0.0,2.0
1624705748.5,0,0,0.0,0.0,2.0
1624705748.96875,0,0,121.57452546296904,0.0,2.0
1624705749.4375,0,0,0.0,0.0,2.0
1624705749.90625,0,0,166.89104195850717,0.0,2.0
1624705750.375,0,0,15.13460452907674,0.0,2.0
1624705750.84375,0,0,0.0,0.0,2.0
1624705751.3125,0,0,0.0,0.0,2.0
1624705751.78125,0,0,168.95420522924547,0.0,2.0
1624705752.25,0,0,19.198499215081117,0.0,2.0
1624705752.71875,0,0,67.50254039740145,0.0,2.0
1624705753.1875,0,0,0.0,0.0,2.0
1624705753.65625,0,0,69.83205440222487,0.0,2.0
1624705754.125,0,0,0.0,0.0,2.0
1624705754.59375,0,0,28.822432801781904,0.0,2.0
1624705755.0625,0,0,32.83070935263254,0.0,2.0
1624705755.53125,0,0,0.0,0.0,2.0
1624705756.0,0,0,37.69989043020712,0.0,2.0
1624705756.46875,0,0,0.0,0.0,2.0
1624705756.9375,0,0,0.0,0.0,2.0
1624705757.40625,0,0,219.46585500598428,0.0,2.0
1624705757.875,0,0,0.0,0.0,2.0
1624705758.34375,0,0,50.1859647142275,0.0,2.0
1624705758.8125,0,0,143.32243937572554,0.0,2.0
1624705759.28125,0,0,0.0,0.0,2.0
1624705759.75,0,0,41.172134653280864,0.0,2.0
1624705760.21875,0,0,39.045639198144535,0.0,2.0
1624705760.6875,0,0,0.0,0.0,2.0
1624705761.15625,0,0,30.70063894266107,0.0,2.0
1624705761.625,0,0,0.0,0.0,2.0
1624705762.09375,0,0,23.30959049096305,0.0,2.0
1624705762.5625,0,0,0.0,0.0,2.0
1624705763.03125,0,0,21.271288719460056,0.0,2.0
1624705763.5,0,0,0.0,0.0,2.0
1624705763.96875,0,0,14.25092961745681,0.0,2.0
1624705764.4375,0,0,0.0,0.0,2.0
1624705764.90625,0,0,19.22404445153669,0.0,2.0
1624705765.375,0,0,0.0,0.0,2.0
1624705765.84375,0,0,24.95995839802833,0.0,2.0
1624705766.3125,0,0,-11.256453727859284,0.0,2.0
1624705766.78125,0,0,51.76142455158086,0.0,2.0
1624705767.25,0,0,117.85352563241757,0.0,2.0
1624705767.71875,0,0,9.304795779086607,0.0,2.0
1624705768.1875,0,0,0.0,0.0,2.0
1624705768.65625,0,0,159.99210963031587,0.0,2.0
1624705769.125,0,0,28.899182200850195,0.0,2.0
1624705769.59375,0,0,118.39792080314315,0.0,2.0
1624705770.0625,0,0,-14.296348483603943,0.0,2.0
1624705770.53125,0,0,23.50940332467121,0.0,2.0
1624705771.0,0,0,93.76313158063749,0.0,2.0
1624705771.46875,0,0,0.0,0.0,2.0
1624705771.9375,0,0,92.8245074137104,0.0,2.0
1624705772.40625,0,0,-88.42905630098183,0.0,2.0
1624705772.875,0,0,0.0,0.0,2.0
1624705773.34375,0,0,3.060105180924025,0.0,2.0
1624705773.8125,0,0,61.247601099277254,0.0,2.0
1624705774.28125,0,0,0.0,0.0,2.0
1624705774.75,0,0,126.48102584770315,0.0,2.0
1624705775.21875,0,0,22.87544204851198,0.0,2.0
1624705775.6875,0,0,14.306449059193966,0.0,2.0
1624705776.15625,0,0,0.0,0.0,2.0
1624705776.625,0,0,79.88371940579482,0.0,2.0
1624705777.09375,0,0,0.0,0.0,2.0
1624705777.5625,0,0,120.26744218685768,0.0,2.0
1624705778.03125,0,0,0.0,0.0,2.0
1624705778.5,0,0,55.83635527281284,0.0,2.0
1624705778.96875,0,0,21.481064358608844,0.0,2.0
1624705779.4375,0,0,-1.4740255859579885,0.0,2.0
1624705779.90625,0,0,0.0,0.0,2.0
1624705780.375,0,0,116.17034526675197,0.0,2.0
1624705780.84375,0,0,0.0,0.0,2.0
1624705781.3125,0,0,169.7710140901066,0.0,2.0
1624705781.78125,0,0,35.51965403435451,0.0,2.0
1624705782.25,0,0,86.46698363837288,0.0,2.0
1624705782.71875,0,0,75.53792749160077,0.0,2.0
1624705783.1875,0,0,8.710523957175651,0.0,2.0
1624705783.65625,0,0,95.57690502200491,0.0,2.0
1624705784.125,0,0,197.1508136360348,0.0,2.0
1624705784.59375,0,0,-70.08555179578853,0.0,2.0
1624705785.0625,0,0,0.0,0.0,2.0
1624705785.53125,0,0,143.50504585561077,0.0,2.0
1624705786.0,0,0,-59.56065486303744,0.0,2.0
1624705786.46875,0,0,63.4584565113574,0.0,2.0
1624705786.9375,0,0,33.891133954473275,0.0,2.0
1624705787.40625,0,0,22.527853546477612,0.0,2.0
1624705787.875,0,0,18.76149107597062,0.0,2.0
1624705788.34375,0,0,0.0,0.0,2.0
1624705788.8125,0,0,146.04554788077817,0.0,2.0
1624705789.28125,0,0,0.0,0.0,2.0
1624705789.75,0,0,34.683816143110064,0.0,2.0
1624705790.21875,0,0,37.49712840805678,0.0,2.0
1624705790.6875,0,0,-0.613509684080243,0.0,2.0
1624705791.15625,0,0,53.80680695964655,0.0,2.0
1624705791.625,0,0,32.639390833014204,0.0,2.0
1624705792.09375,0,0,35.044527682037995,0.0,2.0
1624705792.5625,0,0,39.413485831655514,0.0,2.0
1624705793.03125,0,0,0.0,0.0,2.0
1624705793.5,0,0,16.03244025387769,0.0,2.0
1624705793.96875,0,0,0.0,0.0,2.0
1624705794.4375,0,0,110.57043894086287,0.0,2.0
1624705794.90625,0,0,0.0,0.0,2.0
1624705795.375,0,0,48.224805572721486,0.0,2.0
1624705795.84375,0,0,18.797395429519007,0.0,2.0
1624705796.3125,0,0,25.299261836346506,0.0,2.0
1624705796.78125,0,0,0.0,0.0,2.0
1624705797.25,0,0,27.49372908064832,0.0,2.0
1624705797.71875,0,0,36.33588989357539,0.0,2.0
1624705798.1875,0,0,0.0,0.0,2.0
1624705798.65625,0,0,4.444332444978922,0.0,2.0
1624705799.125,0,0,0.0,0.0,2.0
1624705799.59375,0,0,109.20704453622156,0.0,2.0
1624705800.0625,0,0,0.0,0.0,2.0
1624705800.53125,0,0,89.0425457749689,0.0,2.0
1624705801.0,0,0,0.0,0.0,2.0
1624705801.46875,0,0,190.0549630411978,0.0,2.0
1624705801.9375,0,0,0.0,0.0,2.0
1624705802.40625,0,0,89.75563117569544,0.0,2.0
1624705802.875,0,0,0.0,0.0,2.0
1624705803.34375,0,0,12.051879999207442,0.0,2.0
1624705803.8125,0,0,5.329259983890579,0.0,2.0
1624705804.28125,0,0,45.37350829254813,0.0,2.0
1624705804.75,0,0,0.0,0.0,2.0
1624705805.21875,0,0,17.190003500122717,0.0,2.0
1624705805.6875,0,0,0.0,0.0,2.0
1624705806.15625,0,0,34.07968406988538,0.0,2.0
1624705806.625,0,0,12.712374666963385,0.0,2.0
1624705807.09375,0,0,0.0,0.0,2.0
1624705807.5625,0,0,0.0,0.0,2.0
1624705808.03125,0,0,0.0,0.0,2.0
1624705808.5,0,0,304.0930544157763,0.0,2.0
1624705808.96875,0,0,0.0,0.0,2.0
1624705809.4375,0,0,-0.5096058056214571,0.0,2.0
1624705809.90625,0,0,104.0166179705825,0.0,2.0
1624705810.375,0,0,0.0,0.0,2.0
1624705810.84375,0,0,0.0,0.0,2.0
1624705811.3125,0,0,236.03566167467375,0.0,2.0
1624705811.78125,0,0,0.0,0.0,2.0
1624705812.25,0,0,91.87015845830989,0.0,2.0
1624705812.71875,0,0,0.0,0.0,2.0
1624705813.1875,0,0,0.0,0.0,2.0
1624705813.65625,0,0,77.06476667095014,0.0,2.0
1624705814.125,0,0,43.3867274736874,0.0,2.0
1624705814.59375,0,0,0.0,0.0,2.0
1624705815.0625,0,0,21.789408149142165,0.0,2.0
1624705815.53125,0,0,0.0,0.0,2.0
1624705816.0,0,0,28.844207397035184,0.0,2.0
1624705816.46875,0,0,0.0,0.0,2.0
1624705816.9375,0,0,23.102392387831603,0.0,2.0
1624705817.40625,0,0,-2.410247336082962,0.0,2.0
1624705817.875,0,0,-0.15253317967514513,0.0,2.0
1624705818.34375,0,0,25.257043496175122,0.0,2.0
1624705818.8125,0,0,32.93609249091084,0.0,2.0
1624705819.28125,0,0,0.0,0.0,2.0
1624705819.75,0,0,21.173600553688686,0.0,2.0
1624705820.21875,0,0,0.0,0.0,2.0
1624705820.6875,0,0,27.258986672714826,0.0,2.0
1624705821.15625,0,0,0.0,0.0,2.0
1624705821.625,0,0,20.992066303073855,0.0,2.0
1624705822.09375,0,0,0.0,0.0,2.0
1624705822.5625,0,0,17.961951861436447,0.0,2.0
1624705823.03125,0,0,19.024599726351454,0.0,2.0
1624705823.5,0,0,0.0,0.0,2.0
1624705823.96875,0,0,16.385333978958766,0.0,2.0
1624705824.4375,0,0,0.0,0.0,2.0
1624705824.90625,0,0,17.13760069377771,0.0,2.0
1624705825.375,0,0,0.0,0.0,2.0
1624705825.84375,0,0,15.24193021335132,0.0,2.0
1624705826.3125,0,0,0.0,0.0,2.0
1624705826.78125,0,0,20.307756484286568,0.0,2.0
1624705827.25,0,0,0.0,0.0,2.0
1624705827.71875,0,0,21.933118090670366,0.0,2.0
1624705828.1875,0,0,0.0,0.0,2.0
1624705828.65625,0,0,0.0,0.0,2.0
1624705829.125,0,0,0.0,0.0,2.0
1624705829.59375,0,0,0.0,0.0,2.0
1624705830.0625,0,0,32.19560086055852,0.0,2.0
1624705830.53125,0,0,0.0,0.0,2.0
1624705831.0,0,0,-1.9156246069708225,0.0,2.0
1624705831.46875,0,0,0.0,0.0,2.0
1624705831.9375,0,0,106.66588459913646,0.0,2.0
1624705832.40625,0,0,0.0,0.0,2.0
1624705832.875,0,0,20.68700532274577,0.0,2.0
1624705833.34375,0,0,0.0,0.0,2.0
1624705833.8125,0,0,222.85725564899278,0.0,2.0
1624705834.28125,0,0,0.0,0.0,2.0
1624705834.75,0,0,39.21726078780976,0.0,2.0
1624705835.21875,0,0,154.71829651494517,0.0,2.0
1624705835.6875,0,0,96.23618867938767,0.0,2.0
1624705836.15625,0,0,0.0,0.0,2.0
1624705836.625,0,0,18.061007241973165,0.0,2.0
1624705837.09375,0,0,0.0,0.0,2.0
1624705837.5625,0,0,39.18250035997119,0.0,2.0
1624705838.03125,0,0,0.0,0.0,2.0
1624705838.5,0,0,19.878517378530695,0.0,2.0
1624705838.96875,0,0,0.0,0.0,2.0
1624705839.4375,0,0,28.288986471697953,0.0,2.0
1624705839.90625,0,0,27.82057601469045,0.0,2.0
1624705840.375,0,0,0.0,0.0,2.0
1624705840.84375,0,0,21.169064453700614,0.0,2.0
1624705841.3125,0,0,0.0,0.0,2.0
1624705841.78125,0,0,18.307951976925587,0.0,2.0
1624705842.25,0,0,0.0,0.0,2.0
1624705842.71875,0,0,0.0,0.0,2.0
1624705843.1875,0,0,20.835149839271086,0.0,2.0
1624705843.65625,0,0,0.0,0.0,2.0
1624705844.125,0,0,30.748602924257195,0.0,2.0
1624705844.59375,0,0,0.0,0.0,2.0
1624705845.0625,0,0,0.0,0.0,2.0
1624705845.53125,0,0,268.947328862544,0.0,2.0
1624705846.0,0,0,0.0,0.0,2.0
1624705846.46875,0,0,0.0,0.0,2.0
1624705846.9375,0,0,460.7728132781644,0.0,2.0
1624705847.40625,0,0,0.0,0.0,2.0
1624705847.875,0,0,386.9675872974806,0.0,2.0
1624705848.34375,0,0,0.0,0.0,2.0
1624705848.8125,0,0,414.5856072440589,0.0,2.0
1624705849.28125,0,0,-3.7049521656483675,0.0,2.0
1624705849.75,0,0,0.0,0.0,2.0
1624705850.21875,0,0,131.12513653358914,0.0,2.0
1624705850.6875,0,0,0.0,0.0,2.0
1624705851.15625,0,0,9.680441813346746,0.0,2.0
1624705851.625,0,0,0.0,0.0,2.0
1624705852.09375,0,0,46.46181624854306,0.0,2.0
1624705852.5625,0,0,0.0,0.0,2.0
1624705853.03125,0,0,27.289809786097027,0.0,2.0
1624705853.5,0,0,0.0,0.0,2.0
1624705853.96875,0,0,25.37622264703746,0.0,2.0
1624705854.4375,0,0,24.31917396273999,0.0,2.0
1624705854.90625,0,0,0.0,0.0,2.0
1624705855.375,0,0,19.08267433292461,0.0,2.0
1624705855.84375,0,0,0.0,0.0,2.0
1624705856.3125,0,0,20.48914366091829,0.0,2.0
1624705856.78125,0,0,0.0,0.0,2.0
1624705857.25,0,0,19.149012313188653,0.0,2.0
1624705857.71875,0,0,0.0,0.0,2.0
1624705858.1875,0,0,18.41183028234788,0.0,2.0
1624705858.65625,0,0,0.0,0.0,2.0
1624705859.125,0,0,21.626317616316392,0.0,2.0
1624705859.59375,0,0,10.232037881726017,0.0,2.0
1624705860.0625,0,0,9.477156810529904,0.0,2.0
1624705860.53125,0,0,0.0,0.0,2.0
1624705861.0,0,0,0.0,0.0,2.0
1624705861.46875,0,0,37.33278047759139,0.0,2.0
1624705861.9375,0,0,0.0,0.0,2.0
1624705862.40625,0,0,-57.59824981320902,0.0,2.0
1624705862.875,0,0,313.9169018637349,0.0,2.0
1624705863.34375,0,0,0.0,0.0,2.0
1624705863.8125,0,0,0.0,0.0,2.0
1624705864.28125,0,0,167.4532021583966,0.0,2.0
1624705864.75,0,0,24.31555090647983,0.0,2.0
1624705865.21875,0,0,0.0,0.0,2.0
1624705865.6875,0,0,-8.169497360515578,0.0,2.0
1624705866.15625,0,0,0.0,0.0,2.0
1624705866.625,0,0,186.9473219550874,0.0,2.0
1624705867.09375,0,0,0.0,0.0,2.0
1624705867.5625,0,0,0.0,0.0,2.0
1624705868.03125,0,0,222.13525728338712,0.0,2.0
1624705868.5,0,0,0.0,0.0,2.0
1624705868.96875,0,0,0.0,0.0,2.0
1624705869.4375,0,0,349.9928723603038,0.0,2.0
1624705869.90625,0,0,0.0,0.0,2.0
1624705870.375,0,0,122.54435575923857,0.0,2.0
1624705870.84375,0,0,0.0,0.0,2.0
1624705871.3125,0,0,8.080113389226257,0.0,2.0
1624705871.78125,0,0,0.0,0.0,2.0
1624705872.25,0,0,27.171920760133073,0.0,2.0
1624705872.71875,0,0,0.0,0.0,2.0
1624705873.1875,0,0,19.7717081353389,0.0,2.0
1624705873.65625,0,0,0.0,0.0,2.0
1624705874.125,0,0,20.395149495457115,0.0,2.0
1624705874.59375,0,0,0.0,0.0,2.0
1624705875.0625,0,0,18.35516581160369,0.0,2.0
1624705875.53125,0,0,0.0,0.0,2.0
1624705876.0,0,0,19.888131596785637,0.0,2.0
1624705876.46875,0,0,0.0,0.0,2.0
1624705876.9375,0,0,19.571412623829094,0.0,2.0
1624705877.40625,0,0,0.0,0.0,2.0
1624705877.875,0,0,0.0,0.0,2.0
1624705878.34375,0,0,18.693357267627736,0.0,2.0
1624705878.8125,0,0,0.0,0.0,2.0
1624705879.28125,0,0,20.938771913704514,0.0,2.0
1624705879.75,0,0,0.0,0.0,2.0
1624705880.21875,0,0,19.151276955020137,0.0,2.0
1624705880.6875,0,0,0.0,0.0,2.0
1624705881.15625,0,0,18.24669091372776,0.0,2.0
1624705881.625,0,0,0.0,0.0,2.0
1624705882.09375,0,0,17.556487166062645,0.0,2.0
1624705882.5625,0,0,0.0,0.0,2.0
1624705883.03125,0,0,18.847162148517032,0.0,2.0
1624705883.5,0,0,0.0,0.0,2.0
1624705883.96875,0,0,16.839975184831037,0.0,2.0
1624705884.4375,0,0,12.841953007218745,0.0,2.0
1624705884.90625,0,0,15.815344223511715,0.0,2.0
1624705885.375,0,0,0.0,0.0,2.0
1624705885.84375,0,0,18.127170836436015,0.0,2.0
1624705886.3125,0,0,0.0,0.0,2.0
1624705886.78125,0,0,15.82982372293559,0.0,2.0
1624705887.25,0,0,0.0,0.0,2.0
1624705887.71875,0,0,0.0,0.0,2.0
1624705888.1875,0,0,26.93853525935874,0.0,2.0
1624705888.65625,0,0,-4.475594870238296,0.0,2.0
1624705889.125,0,0,12.347706105151563,0.0,2.0
1624705889.59375,0,0,0.0,0.0,2.0
1624705890.0625,0,0,18.131397677402322,0.0,2.0
1624705890.53125,0,0,0.0,0.0,2.0
1624705891.0,0,0,22.347016214994078,0.0,2.0
1624705891.46875,0,0,0.0,0.0,2.0
1624705891.9375,0,0,0.0,0.0,2.0
1624705892.40625,0,0,0.0,0.0,2.0
1624705892.875,0,0,42.76362087540518,0.0,2.0
1624705893.34375,0,0,-17.69954480110822,0.0,2.0
1624705893.8125,0,0,0.0,0.0,2.0
1624705894.28125,0,0,261.64116887196207,0.0,2.0
1624705894.75,0,0,0.0,0.0,2.0
1624705895.21875,0,0,-11.255074763748372,0.0,2.0
1624705895.6875,0,0,0.0,0.0,2.0
1624705896.15625,0,0,375.90530646851914,0.0,2.0
1624705896.625,0,0,-144.40738450175917,0.0,2.0
1624705897.09375,0,0,0.0,0.0,2.0
1624705897.5625,0,0,101.13581239863362,0.0,2.0
1624705898.03125,0,0,12.697192940489572,0.0,2.0
1624705898.5,0,0,0.0,0.0,2.0
1624705898.96875,0,0,231.38199705060924,0.0,2.0
1624705899.4375,0,0,0.0,0.0,2.0
1624705899.90625,0,0,0.0,0.0,2.0
1624705900.375,0,0,268.78777254802804,0.0,2.0
1624705900.84375,0,0,-11.91692002580819,0.0,2.0
1624705901.3125,0,0,219.4890190193456,0.0,2.0
1624705901.78125,0,0,0.0,0.0,2.0
1624705902.25,0,0,0.0,0.0,2.0
1624705902.71875,0,0,0.0,0.0,2.0
1624705903.1875,0,0,171.0213511075637,0.0,2.0
1624705903.65625,0,0,121.26527658271235,0.0,2.0
1624705904.125,0,0,117.16191892172796,0.0,2.0
1624705904.59375,0,0,-87.2390366043937,0.0,2.0
1624705905.0625,0,0,153.67196047962224,0.0,2.0
1624705905.53125,0,0,51.28298662526494,0.0,2.0
1624705906.0,0,0,73.52749620875646,0.0,2.0
1624705906.46875,0,0,107.22334911123582,0.0,2.0
1624705906.9375,0,0,-18.406393826733183,0.0,2.0
1624705907.40625,0,0,30.960390412343063,0.0,2.0
1624705907.875,0,0,0.0,0.0,2.0
1624705908.34375,0,0,17.320258568359368,0.0,2.0
1624705908.8125,0,0,0.0,0.0,2.0
1624705909.28125,0,0,45.79170041820742,0.0,2.0
1624705909.75,0,0,7.540572549205116,0.0,2.0
1624705910.21875,0,0,122.31509044390394,0.0,2.0
1624705910.6875,0,0,0.0,0.0,2.0
1624705911.15625,0,0,115.48840622366231,0.0,2.0
1624705911.625,0,0,0.0,0.0,2.0
1624705912.09375,0,0,66.87638273411582,0.0,2.0
1624705912.5625,0,0,52.94773415191038,0.0,2.0
1624705913.03125,0,0,86.9951377821819,0.0,2.0
1624705913.5,0,0,56.8206606368439,0.0,2.0
1624705913.96875,0,0,0.0,0.0,2.0
1624705914.4375,0,0,20.990772660276455,0.0,2.0
1624705914.90625,0,0,21.179717430426038,0.0,2.0
1624705915.375,0,0,0.0,0.0,2.0
1624705915.84375,0,0,0.0,0.0,2.0
1624705916.3125,0,0,41.30492135097261,0.0,2.0
1624705916.78125,0,0,11.490739083947812,0.0,2.0
1624705917.25,0,0,29.383982800501794,0.0,2.0
1624705917.71875,0,0,14.883740219276358,0.0,2.0
1624705918.1875,0,0,339.1484720642234,0.0,2.0
1624705918.65625,0,0,0.0,0.0,2.0
1624705919.125,0,0,172.8902133128988,0.0,2.0
1624705919.59375,0,0,0.0,0.0,2.0
1624705920.0625,0,0,270.879102221288,0.0,2.0
1624705920.53125,0,0,219.17829509169468,0.0,2.0
1624705921.0,0,0,0.0,0.0,2.0
1624705921.46875,0,0,50.919050739816484,0.0,2.0
1624705921.9375,0,0,82.46411855204916,0.0,2.0
1624705922.40625,0,0,-12.599741342485597,0.0,2.0
1624705922.875,0,0,2.577771902323111,0.0,2.0
1624705923.34375,0,0,3.148190610752639,0.0,2.0
1624705923.8125,0,0,0.0,0.0,2.0
1624705924.28125,0,0,132.32175835000945,0.0,2.0
1624705924.75,0,0,51.84610760946807,0.0,2.0
1624705925.21875,0,0,0.0,0.0,2.0
1624705925.6875,0,0,32.55907038844038,0.0,2.0
1624705926.15625,0,0,31.44568262907479,0.0,2.0
1624705926.625,0,0,0.0,0.0,2.0
1624705927.09375,0,0,59.3053789869824,0.0,2.0
1624705927.5625,0,0,12.328825592766334,0.0,2.0
1624705928.03125,0,0,0.0,0.0,2.0
1624705928.5,0,0,28.142285277821827,0.0,2.0
1624705928.96875,0,0,36.22169033407495,0.0,2.0
1624705929.4375,0,0,0.0,0.0,2.0
1624705929.90625,0,0,19.86650629464183,0.0,2.0
1624705930.375,0,0,0.0,0.0,2.0
1624705930.84375,0,0,40.432546450139576,0.0,2.0
1624705931.3125,0,0,0.0,0.0,3.0
1624705931.78125,0,0,39.56285703682224,0.0,3.0
1624705932.25,0,0,18.68813200544586,0.0,3.0
1624705932.71875,0,0,-14.03615892244422,0.0,3.0
1624705933.1875,0,0,158.86808519804356,0.0,3.0
1624705933.65625,0,0,68.48026868721672,0.0,3.0
1624705934.125,0,0,102.26782945341266,0.0,3.0
1624705934.59375,0,0,66.1701722707118,0.0,3.0
1624705935.0625,0,0,106.13986755928018,0.0,3.0
1624705935.53125,0,0,0.0,0.0,3.0
1624705936.0,0,0,18.060604312929684,0.0,3.0
1624705936.46875,0,0,286.73642977874135,0.0,3.0
1624705936.9375,0,0,0.0,0.0,3.0
1624705937.40625,0,0,56.14227672026598,0.0,3.0
1624705937.875,0,0,0.0,0.0,3.0
1624705938.34375,0,0,140.05135310150712,0.0,3.0
1624705938.8125,0,0,-32.63991884947952,0.0,3.0
1624705939.28125,0,0,67.18414792737012,0.0,3.0
1624705939.75,0,0,0.0,0.0,3.0
1624705940.21875,0,0,26.932888889006563,0.0,3.0
1624705940.6875,0,0,7.019550310677045,0.0,3.0
1624705941.15625,0,0,17.016253252623617,0.0,3.0
1624705941.625,0,0,35.01525080501623,0.0,3.0
1624705942.09375,0,0,13.346182220161577,0.0,3.0
1624705942.5625,0,0,112.44303457076258,0.0,3.0
1624705943.03125,0,0,100.96958318493704,0.0,3.0
1624705943.5,0,0,48.11773257406356,0.0,3.0
1624705943.96875,0,0,77.74190502475085,0.0,3.0
1624705944.4375,0,0,136.11775692024838,0.0,3.0
1624705944.90625,0,0,42.957153277510685,0.0,3.0
1624705945.375,0,0,80.59207672531691,0.0,3.0
1624705945.84375,0,0,110.14233476697521,0.0,3.0
1624705946.3125,0,0,16.34731906030953,0.0,3.0
1624705946.78125,0,0,0.0,0.0,3.0
1624705947.25,0,0,221.51337595398076,0.0,3.0
1624705947.71875,0,0,15.816507045934987,0.0,3.0
1624705948.1875,0,0,35.596169676448795,0.0,3.0
1624705948.65625,0,0,116.60154499347615,0.0,3.0
1624705949.125,0,0,-17.397665100681067,0.0,3.0
1624705949.59375,0,0,0.0,0.0,3.0
1624705950.0625,0,0,117.71903983665985,0.0,3.0
1624705950.53125,0,0,-1.743711629212856,0.0,3.0
1624705951.0,0,0,20.4411206236094,0.0,3.0
1624705951.46875,0,0,26.115656618271736,0.0,3.0
1624705951.9375,0,0,0.0,0.0,3.0
1624705952.40625,0,0,15.343096719811296,0.0,3.0
1624705952.875,0,0,21.544377463788084,0.0,3.0
1624705953.34375,0,0,22.073402240382492,0.0,3.0
1624705953.8125,0,0,0.0,0.0,3.0
1624705954.28125,0,0,30.306237187379903,0.0,3.0
1624705954.75,0,0,0.0,0.0,3.0
1624705955.21875,0,0,201.81695081711504,0.0,3.0
1624705955.6875,0,0,-54.573548626564545,0.0,3.0
1624705956.15625,0,0,20.793154448876145,0.0,3.0
1624705956.625,0,0,166.53330216490767,0.0,3.0
1624705957.09375,0,0,-24.412980749298427,0.0,3.0
1624705957.5625,0,0,144.7573737944681,0.0,3.0
1624705958.03125,0,0,0.0,0.0,3.0
1624705958.5,0,0,40.4794375830196,0.0,3.0
1624705958.96875,0,0,0.5767299056405164,0.0,3.0
1624705959.4375,0,0,103.98963456915452,0.0,3.0
1624705959.90625,0,0,-38.32078054676003,0.0,3.0
1624705960.375,0,0,0.0,0.0,3.0
1624705960.84375,0,0,39.19173658857912,0.0,3.0
1624705961.3125,0,0,125.24657164055765,0.0,3.0
1624705961.78125,0,0,0.0,0.0,3.0
1624705962.25,0,0,67.75862390644015,0.0,3.0
1624705962.71875,0,0,0.0,0.0,3.0
1624705963.1875,0,0,63.971998540268245,0.0,3.0
1624705963.65625,0,0,93.51338022964703,0.0,3.0
1624705964.125,0,0,51.887921780775,0.0,3.0
1624705964.59375,0,0,36.16918881293969,0.0,3.0
1624705965.0625,0,0,0.0,0.0,3.0
1624705965.53125,0,0,87.48153856098558,0.0,3.0
1624705966.0,0,0,64.6024012271801,0.0,3.0
1624705966.46875,0,0,25.063947836547484,0.0,3.0
1624705966.9375,0,0,44.93418176479993,0.0,3.0
1624705967.40625,0,0,86.09848976795486,0.0,3.0
1624705967.875,0,0,0.0,0.0,3.0
1624705968.34375,0,0,0.0,0.0,3.0
1624705968.8125,0,0,42.16653163895596,0.0,3.0
1624705969.28125,0,0,0.0,0.0,3.0
1624705969.75,0,0,132.72238804027313,0.0,3.0
1624705970.21875,0,0,0.0,0.0,3.0
1624705970.6875,0,0,57.495097375981466,0.0,3.0
1624705971.15625,0,0,0.0,0.0,3.0
1624705971.625,0,0,122.99540850421188,0.0,3.0
1624705972.09375,0,0,0.0,0.0,3.0
1624705972.5625,0,0,68.27370211210835,0.0,3.0
1624705973.03125,0,0,-4.261204397438479,0.0,3.0
1624705973.5,0,0,0.0,0.0,3.0
1624705973.96875,0,0,171.90830849215737,0.0,3.0
1624705974.4375,0,0,70.57961666017631,0.0,3.0
1624705974.90625,0,0,0.0,0.0,3.0
1624705975.375,0,0,0.0,0.0,3.0
1624705975.84375,0,0,194.45986711016744,0.0,3.0
1624705976.3125,0,0,107.00811492690075,0.0,3.0
1624705976.78125,0,0,0.0,0.0,3.0
1624705977.25,0,0,-32.90561622515413,0.0,3.0
1624705977.71875,0,0,0.0,0.0,3.0
1624705978.1875,0,0,0.0,0.0,3.0
1624705978.65625,0,0,119.87196690134714,0.0,3.0
1624705979.125,0,0,0.0,0.0,3.0
1624705979.59375,0,0,0.0,0.0,3.0
1624705980.0625,0,0,32.338885184915334,0.0,3.0
1624705980.53125,0,0,190.13010195075645,0.0,3.0
1624705981.0,0,0,0.0,0.0,3.0
1624705981.46875,0,0,102.95761916232823,0.0,3.0
1624705981.9375,0,0,0.0,0.0,3.0
1624705982.40625,0,0,0.0,0.0,3.0
1624705982.875,0,0,9.695555653992615,0.0,3.0
1624705983.34375,0,0,207.48198517861934,0.0,3.0
1624705983.8125,0,0,0.0,0.0,3.0
1624705984.28125,0,0,78.48328999132964,0.0,3.0
1624705984.75,0,0,28.896616821355664,0.0,3.0
1624705985.21875,0,0,0.0,0.0,3.0
1624705985.6875,0,0,29.65409952760472,0.0,3.0
1624705986.15625,0,0,0.0,0.0,3.0
1624705986.625,0,0,210.89626388377232,0.0,3.0
1624705987.09375,0,0,0.0,0.0,3.0
1624705987.5625,0,0,76.35465070141292,0.0,3.0
1624705988.03125,0,0,13.26351099798991,0.0,3.0
1624705988.5,0,0,0.0,0.0,3.0
1624705988.96875,0,0,0.0,0.0,3.0
1624705989.4375,0,0,8.264330828361082,0.0,3.0
1624705989.90625,0,0,172.09537310636452,0.0,3.0
1624705990.375,0,0,0.0,0.0,3.0
1624705990.84375,0,0,64.61444605653126,0.0,3.0
1624705991.3125,0,0,0.0,0.0,3.0
1624705991.78125,0,0,214.17197924726216,0.0,3.0
1624705992.25,0,0,59.05056005753976,0.0,3.0
1624705992.71875,0,0,0.0,0.0,3.0
1624705993.1875,0,0,60.0519996816462,0.0,3.0
1624705993.65625,0,0,103.84712199182374,0.0,3.0
1624705994.125,0,0,-33.366654273039636,0.0,3.0
1624705994.59375,0,0,125.18041554449225,0.0,3.0
1624705995.0625,0,0,95.20490567951072,0.0,3.0
1624705995.53125,0,0,-41.53161497234485,0.0,3.0
1624705996.0,0,0,25.779264396863034,0.0,3.0
1624705996.46875,0,0,123.00800699480595,0.0,3.0
1624705996.9375,0,0,123.75826304173708,0.0,3.0
1624705997.40625,0,0,18.65139783863985,0.0,3.0
1624705997.875,0,0,39.24929450832604,0.0,3.0
1624705998.34375,0,0,11.446463410221256,0.0,3.0
1624705998.8125,0,0,31.37567451507733,0.0,3.0
1624705999.28125,0,0,0.0,0.0,3.0
1624705999.75,0,0,24.26615831529412,0.0,3.0
1624706000.21875,0,0,0.0,0.0,3.0
1624706000.6875,0,0,26.531320853663917,0.0,3.0
1624706001.15625,0,0,0.0,0.0,3.0
1624706001.625,0,0,27.88980882855799,0.0,3.0
1624706002.09375,0,0,0.0,0.0,3.0
1624706002.5625,0,0,23.295862625932937,0.0,3.0
1624706003.03125,0,0,0.0,0.0,3.0
1624706003.5,0,0,38.554983798642255,0.0,3.0
1624706003.96875,0,0,67.05651066689545,0.0,3.0
1624706004.4375,0,0,0.0,0.0,3.0
1624706004.90625,0,0,116.13346704305945,0.0,3.0
1624706005.375,0,0,0.0,0.0,3.0
1624706005.84375,0,0,42.82099964298358,0.0,3.0
1624706006.3125,0,0,18.284118784461388,0.0,3.0
1624706006.78125,0,0,0.0,0.0,3.0
1624706007.25,0,0,36.439350799356355,0.0,3.0
1624706007.71875,0,0,3.6785580460446607,0.0,3.0
1624706008.1875,0,0,6.756300143719665,0.0,3.0
1624706008.65625,0,0,4.97518179977864,0.0,3.0
1624706009.125,0,0,0.0,0.0,3.0
1624706009.59375,0,0,130.36917800712206,0.0,3.0
1624706010.0625,0,0,0.0,0.0,3.0
1624706010.53125,0,0,172.72284023165517,0.0,3.0
1624706011.0,0,0,-36.23669906501742,0.0,3.0
1624706011.46875,0,0,28.268013434523812,0.0,3.0
1624706011.9375,0,0,0.0,0.0,3.0
1624706012.40625,0,0,162.79641629168452,0.0,3.0
1624706012.875,0,0,0.0,0.0,3.0
1624706013.34375,0,0,74.06580573317147,0.0,3.0
1624706013.8125,0,0,31.98730038109014,0.0,3.0
1624706014.28125,0,0,132.56779270904957,0.0,3.0
1624706014.75,0,0,0.0,0.0,3.0
1624706015.21875,0,0,57.437136291271855,0.0,3.0
1624706015.6875,0,0,0.0,0.0,3.0
1624706016.15625,0,0,-6.518106516625396,0.0,3.0
1624706016.625,0,0,0.0,0.0,3.0
1624706017.09375,0,0,161.86119824909554,0.0,3.0
1624706017.5625,0,0,29.018639362469884,0.0,3.0
1624706018.03125,0,0,0.0,0.0,3.0
1624706018.5,0,0,0.0,0.0,3.0
1624706018.96875,0,0,183.41196581164832,0.0,3.0
1624706019.4375,0,0,0.0,0.0,3.0
1624706019.90625,0,0,20.890909578749465,0.0,3.0
1624706020.375,0,0,22.211097373034566,0.0,3.0
1624706020.84375,0,0,153.90509792376102,0.0,3.0
1624706021.3125,0,0,23.124334002934898,0.0,3.0
1624706021.78125,0,0,35.09520494879689,0.0,3.0
1624706022.25,0,0,24.60098162175577,0.0,3.0
1624706022.71875,0,0,158.29264339813872,0.0,3.0
1624706023.1875,0,0,0.0,0.0,3.0
1624706023.65625,0,0,134.0623880091402,0.0,3.0
1624706024.125,0,0,0.0,0.0,3.0
1624706024.59375,0,0,-2.6804980724391427,0.0,3.0
1624706025.0625,0,0,199.51631041367696,0.0,3.0
1624706025.53125,0,0,0.0,0.0,3.0
1624706026.0,0,0,23.35675229952997,0.0,3.0
1624706026.46875,0,0,0.0,0.0,3.0
1624706026.9375,0,0,219.83921521643046,0.0,3.0
1624706027.40625,0,0,0.0,0.0,3.0
1624706027.875,0,0,0.0,0.0,3.0
1624706028.34375,0,0,0.0,0.0,3.0
1624706028.8125,0,0,128.76964103523608,0.0,3.0
1624706029.28125,0,0,79.41495714796162,0.0,3.0
1624706029.75,0,0,16.192959464908412,0.0,3.0
1624706030.21875,0,0,-3.913009016771161,0.0,3.0
1624706030.6875,0,0,236.2053597380531,0.0,3.0
1624706031.15625,0,0,0.0,0.0,3.0
1624706031.625,0,0,102.12487939787842,0.0,3.0
1624706032.09375,0,0,0.0,0.0,3.0
1624706032.5625,0,0,97.40980075819513,0.0,3.0
1624706033.03125,0,0,110.38691834464778,0.0,3.0
1624706033.5,0,0,15.498831117902604,0.0,3.0
1624706033.96875,0,0,22.196723920971586,0.0,3.0
1624706034.4375,0,0,0.0,0.0,3.0
1624706034.90625,0,0,202.69567698469302,0.0,3.0
1624706035.375,0,0,79.74891545937369,0.0,3.0
1624706035.84375,0,0,0.0,0.0,3.0
1624706036.3125,0,0,0.0,0.0,3.0
1624706036.78125,0,0,218.42442801233128,0.0,3.0
1624706037.25,0,0,0.0,0.0,3.0
1624706037.71875,0,0,73.37460664432002,0.0,3.0
1624706038.1875,0,0,111.63328178711416,0.0,3.0
1624706038.65625,0,0,114.13443387220579,0.0,3.0
1624706039.125,0,0,0.0,0.0,3.0
1624706039.59375,0,0,121.52283748410647,0.0,3.0
1624706040.0625,0,0,0.0,0.0,3.0
1624706040.53125,0,0,151.94598500065095,0.0,3.0
1624706041.0,0,0,90.3723760175928,0.0,3.0
1624706041.46875,0,0,78.82108986017037,0.0,3.0
1624706041.9375,0,0,0.0,0.0,3.0
1624706042.40625,0,0,0.0,0.0,3.0
1624706042.875,0,0,0.0,0.0,3.0
1624706043.34375,0,0,30.543848649298738,0.0,3.0
1624706043.8125,0,0,69.34162423627757,0.0,3.0
1624706044.28125,0,0,73.67002744917234,0.0,3.0
1624706044.75,0,0,104.36907801266563,0.0,3.0
1624706045.21875,0,0,100.69355449840563,0.0,3.0
1624706045.6875,0,0,135.3990950042008,0.0,3.0
1624706046.15625,0,0,0.0,0.0,3.0
1624706046.625,0,0,268.61588669960713,0.0,3.0
1624706047.09375,0,0,0.0,0.0,3.0
1624706047.5625,0,0,57.5349286966636,0.0,3.0
1624706048.03125,0,0,0.0,0.0,3.0
1624706048.5,0,0,153.50272018662233,0.0,3.0
1624706048.96875,0,0,0.0,0.0,3.0
1624706049.4375,0,0,39.776407791105356,0.0,3.0
1624706049.90625,0,0,74.64713617407321,0.0,3.0
1624706050.375,0,0,0.0,0.0,3.0
1624706050.84375,0,0,192.74534055540485,0.0,3.0
1624706051.3125,0,0,175.9798062627018,0.0,3.0
1624706051.78125,0,0,173.07227361461568,0.0,3.0
1624706052.25,0,0,16.545411545161194,0.0,3.0
1624706052.71875,0,0,95.96946049709103,0.0,3.0
1624706053.1875,0,0,15.305368830727318,0.0,3.0
1624706053.65625,0,0,-50.51381492199864,0.0,3.0
