timestamp,mean_pulse_rate,pulse_rate_std,mean_pulse_amplitude,pulse_amplitude_std,block
1634891932.65625,0,0,-4.028016218919889,0.0,1.0
1634891933.125,0,0,-13.423412420960862,0.0,1.0
1634891933.59375,0,0,138.57758357825512,0.0,1.0
1634891934.0625,0,0,0.0,0.0,1.0
1634891934.53125,0,0,18.10754110683964,0.0,1.0
1634891935.0,0,0,51.916167402885094,0.0,1.0
1634891935.46875,0,0,0.0,0.0,1.0
1634891935.9375,0,0,8.53297448528954,0.0,1.0
1634891936.40625,0,0,13.342869548361765,0.0,1.0
1634891936.875,0,0,17.639403119630014,0.0,1.0
1634891937.34375,0,0,18.915357673426854,0.0,1.0
1634891937.8125,0,0,2.816263660473667,0.0,1.0
1634891938.28125,0,0,7.406621369982347,0.0,1.0
1634891938.75,0,0,9.533472667494921,0.0,1.0
1634891939.21875,0,0,7.0377955534389685,0.0,1.0
1634891939.6875,0,0,9.82671331144003,0.0,1.0
1634891940.15625,0,0,0.0,0.0,1.0
1634891940.625,0,0,10.203108692294661,0.0,1.0
1634891941.09375,0,0,11.44826968095496,0.0,1.0
1634891941.5625,0,0,8.298496844735473,0.0,1.0
1634891942.03125,0,0,0.0,0.0,1.0
1634891942.5,0,0,6.490508885765347,0.0,1.0
1634891942.96875,0,0,8.36840281686743,0.0,1.0
1634891943.4375,0,0,5.266845271932457,0.0,1.0
1634891943.90625,0,0,3.1609549854432033,0.0,1.0
1634891944.375,0,0,8.39338342806252,0.0,1.0
1634891944.84375,0,0,11.074285997276142,0.0,1.0
1634891945.3125,0,0,3.726262229354944,0.0,1.0
1634891945.78125,0,0,11.053689102203249,0.0,1.0
1634891946.25,0,0,12.381066055047553,0.0,1.0
1634891946.71875,0,0,13.33956030798752,0.0,1.0
1634891947.1875,0,0,9.132334212089487,0.0,1.0
1634891947.65625,0,0,11.654303495371712,0.0,1.0
1634891948.125,0,0,9.180337181432606,0.0,1.0
1634891948.59375,0,0,-1.5102836219172593,0.0,1.0
1634891949.0625,0,0,15.204500085066451,0.0,1.0
1634891949.53125,0,0,0.35798210449150897,0.0,1.0
1634891950.0,0,0,15.95689655853168,0.0,1.0
1634891950.46875,0,0,8.999176466216785,0.0,1.0
1634891950.9375,0,0,22.988924478015917,0.0,1.0
1634891951.40625,0,0,-3.083264385705483,0.0,1.0
1634891951.875,0,0,-9.575870287167644,0.0,1.0
1634891952.34375,0,0,101.63589540823389,0.0,1.0
1634891952.8125,0,0,0.0,0.0,1.0
1634891953.28125,0,0,18.71203516161813,0.0,1.0
1634891953.75,0,0,3.097421311948568,0.0,1.0
1634891954.21875,0,0,0.0,0.0,1.0
1634891954.6875,0,0,5.185506679066634,0.0,1.0
1634891955.15625,0,0,0.0,0.0,1.0
1634891955.625,0,0,9.100997555935782,0.0,1.0
1634891956.09375,0,0,0.21863611538750224,0.0,1.0
1634891956.5625,0,0,8.655504094962216,0.0,1.0
1634891957.03125,0,0,7.762933830749883,0.0,1.0
1634891957.5,0,0,6.589471399443274,0.0,1.0
1634891957.96875,0,0,-6.054086698753735,0.0,1.0
1634891958.4375,0,0,0.0,0.0,1.0
1634891958.90625,0,0,89.82290750872157,0.0,1.0
1634891959.375,0,0,0.0,0.0,1.0
1634891959.84375,0,0,0.0,0.0,1.0
1634891960.3125,0,0,15.30904522405638,0.0,1.0
1634891960.78125,0,0,8.045897606245413,0.0,1.0
1634891961.25,0,0,12.807402378032373,0.0,1.0
1634891961.71875,0,0,5.26751115965694,0.0,1.0
1634891962.1875,0,0,13.642463127649357,0.0,1.0
1634891962.65625,0,0,12.069105196939338,0.0,1.0
1634891963.125,0,0,6.156405208552152,0.0,1.0
1634891963.59375,0,0,0.0,0.0,1.0
1634891964.0625,0,0,19.222050472523964,0.0,1.0
1634891964.53125,0,0,18.302987665050544,0.0,1.0
1634891965.0,0,0,0.0,0.0,1.0
1634891965.46875,0,0,42.356680231736796,0.0,1.0
1634891965.9375,0,0,0.0,0.0,1.0
1634891966.40625,0,0,88.48154608588601,0.0,1.0
1634891966.875,0,0,0.0,0.0,1.0
1634891967.34375,0,0,17.278625689656078,0.0,1.0
1634891967.8125,0,0,7.855604091930699,0.0,1.0
1634891968.28125,0,0,21.74083706118631,0.0,1.0
1634891968.75,0,0,71.53016356653151,0.0,1.0
1634891969.21875,0,0,8.125135951975174,0.0,1.0
1634891969.6875,0,0,9.4764357257962,0.0,1.0
1634891970.15625,0,0,0.0,0.0,1.0
1634891970.625,0,0,45.3654151923162,0.0,1.0
1634891971.09375,0,0,-5.095761351953716,0.0,1.0
1634891971.5625,0,0,9.539867926283664,0.0,1.0
1634891972.03125,0,0,0.0,0.0,1.0
1634891972.5,0,0,88.41712891767783,0.0,1.0
1634891972.96875,0,0,0.0,0.0,1.0
1634891973.4375,0,0,24.454340448878042,0.0,1.0
1634891973.90625,0,0,0.0,0.0,1.0
1634891974.375,0,0,27.15471732756459,0.0,1.0
1634891974.84375,0,0,43.73266681331289,0.0,1.0
1634891975.3125,0,0,28.472991695692674,0.0,1.0
1634891975.78125,0,0,0.0,0.0,1.0
1634891976.25,0,0,8.554662083424816,0.0,1.0
1634891976.71875,0,0,21.49983109684818,0.0,1.0
1634891977.1875,0,0,64.35222000351229,0.0,1.0
1634891977.65625,0,0,-6.859431991914031,0.0,1.0
1634891978.125,0,0,15.606588958660963,0.0,1.0
1634891978.59375,0,0,72.83234144370874,0.0,1.0
1634891979.0625,0,0,0.0,0.0,1.0
1634891979.53125,0,0,32.89680316710505,0.0,1.0
1634891980.0,0,0,7.802600420376797,0.0,1.0
1634891980.46875,0,0,80.66262075205314,0.0,1.0
1634891980.9375,0,0,0.0,0.0,1.0
1634891981.40625,0,0,25.030806172291072,0.0,1.0
1634891981.875,0,0,10.92579919044272,0.0,1.0
1634891982.34375,0,0,0.0,0.0,1.0
1634891982.8125,0,0,88.13220589000082,0.0,1.0
1634891983.28125,0,0,12.171930687488874,0.0,1.0
1634891983.75,0,0,11.178887953062288,0.0,1.0
1634891984.21875,0,0,0.0,0.0,1.0
1634891984.6875,0,0,69.49994549249135,0.0,1.0
1634891985.15625,0,0,8.457242353068958,0.0,1.0
1634891985.625,0,0,8.084359975873353,0.0,1.0
1634891986.09375,0,0,0.0,0.0,1.0
1634891986.5625,0,0,82.49566244149136,0.0,1.0
1634891987.03125,0,0,0.0,0.0,1.0
1634891987.5,0,0,12.387730831946616,0.0,1.0
1634891987.96875,0,0,0.0,0.0,1.0
1634891988.4375,0,0,65.26882417955363,0.0,1.0
1634891988.90625,0,0,0.0,0.0,1.0
1634891989.375,0,0,9.471645290820366,0.0,1.0
1634891989.84375,0,0,13.08670659493438,0.0,1.0
1634891990.3125,0,0,71.40668348332441,0.0,1.0
1634891990.78125,0,0,0.0,0.0,1.0
1634891991.25,0,0,1.3503895688658596,0.0,1.0
1634891991.71875,0,0,14.266431672494486,0.0,1.0
1634891992.1875,0,0,0.0,0.0,1.0
1634891992.65625,0,0,45.631661757967365,0.0,1.0
1634891993.125,0,0,7.333524429512157,0.0,1.0
1634891993.59375,0,0,17.618236780613696,0.0,1.0
1634891994.0625,0,0,0.0,0.0,1.0
1634891994.53125,0,0,47.38150685352999,0.0,1.0
1634891995.0,0,0,-10.406884889783909,0.0,1.0
1634891995.46875,0,0,26.556687338603773,0.0,1.0
1634891995.9375,0,0,0.0,0.0,1.0
1634891996.40625,0,0,9.61011602930345,0.0,1.0
1634891996.875,0,0,48.04595950976636,0.0,1.0
1634891997.34375,0,0,15.517117674547858,0.0,1.0
1634891997.8125,0,0,0.0,0.0,1.0
1634891998.28125,0,0,12.859087801175846,0.0,1.0
1634891998.75,0,0,61.8316234929771,0.0,1.0
1634891999.21875,0,0,-18.68299270304202,0.0,1.0
1634891999.6875,0,0,15.71364450534574,0.0,1.0
1634892000.15625,0,0,0.0,0.0,1.0
1634892000.625,0,0,56.84353828058659,0.0,1.0
1634892001.09375,0,0,-16.87207231196122,0.0,1.0
1634892001.5625,0,0,18.652634188998594,0.0,1.0
1634892002.03125,0,0,5.75156031055315,0.0,1.0
1634892002.5,0,0,70.21509948621136,0.0,1.0
1634892002.96875,0,0,0.0,0.0,1.0
1634892003.4375,0,0,20.996403388159713,0.0,1.0
1634892003.90625,0,0,7.302432677296982,0.0,1.0
1634892004.375,0,0,8.804430525272707,0.0,1.0
1634892004.84375,0,0,75.84155691262607,0.0,1.0
1634892005.3125,0,0,18.718834969194837,0.0,1.0
1634892005.78125,0,0,0.0,0.0,1.0
1634892006.25,0,0,15.582301925759962,0.0,1.0
1634892006.71875,0,0,49.67435300494604,0.0,1.0
1634892007.1875,0,0,-20.79438644031941,0.0,1.0
1634892007.65625,0,0,24.301178818694094,0.0,1.0
1634892008.125,0,0,15.532794964396597,0.0,1.0
1634892008.59375,0,0,9.845737248068797,0.0,1.0
1634892009.0625,0,0,8.572757226052643,0.0,1.0
1634892009.53125,0,0,14.19491305923341,0.0,1.0
1634892010.0,0,0,24.429907861801105,0.0,1.0
1634892010.46875,0,0,0.0,0.0,1.0
1634892010.9375,0,0,36.10856488440902,0.0,1.0
1634892011.40625,0,0,5.839590676320729,0.0,1.0
1634892011.875,0,0,0.0,0.0,1.0
1634892012.34375,0,0,12.794552433315891,0.0,1.0
1634892012.8125,0,0,8.62792802370169,0.0,1.0
1634892013.28125,0,0,22.309497132683013,0.0,1.0
1634892013.75,0,0,0.0,0.0,1.0
1634892014.21875,0,0,3.400879865394606,0.0,1.0
1634892014.6875,0,0,15.178899970435364,0.0,1.0
1634892015.15625,0,0,2.184800196515732,0.0,1.0
1634892015.625,0,0,6.806616752296643,0.0,1.0
1634892016.09375,0,0,47.15980803019272,0.0,1.0
1634892016.5625,0,0,-4.188706551456396,0.0,1.0
1634892017.03125,0,0,11.848840732574528,0.0,1.0
1634892017.5,0,0,31.283064185218468,0.0,1.0
1634892017.96875,0,0,-11.200007533683062,0.0,1.0
1634892018.4375,0,0,0.0,0.0,1.0
1634892018.90625,0,0,7.8647302323555675,0.0,1.0
1634892019.375,0,0,9.919982709169513,0.0,1.0
1634892019.84375,0,0,2.241614209481342,0.0,1.0
1634892020.3125,0,0,1.5218579383858923,0.0,1.0
1634892020.78125,0,0,5.763441887055753,0.0,1.0
1634892021.25,0,0,8.366949497740416,0.0,1.0
1634892021.71875,0,0,10.031297967212314,0.0,1.0
1634892022.1875,0,0,8.597766704851018,0.0,1.0
1634892022.65625,0,0,0.0,0.0,1.0
1634892023.125,0,0,0.0,0.0,1.0
1634892023.59375,0,0,11.969861341904188,0.0,1.0
1634892024.0625,0,0,3.411895072097771,0.0,1.0
1634892024.53125,0,0,5.990881084980823,0.0,1.0
1634892025.0,0,0,69.59653560568144,0.0,1.0
1634892025.46875,0,0,0.0,0.0,1.0
1634892025.9375,0,0,57.417331929203456,0.0,1.0
1634892026.40625,0,0,-19.74935370753808,0.0,1.0
1634892026.875,0,0,12.059430048059951,0.0,1.0
1634892027.34375,0,0,0.0,0.0,1.0
1634892027.8125,0,0,43.54338248217838,0.0,1.0
1634892028.28125,0,0,-7.0543465278480495,0.0,1.0
1634892028.75,0,0,16.55547998025392,0.0,1.0
1634892029.21875,0,0,0.0,0.0,1.0
1634892029.6875,0,0,10.12103418568469,0.0,1.0
1634892030.15625,0,0,0.0,0.0,1.0
1634892030.625,0,0,20.357260306636576,0.0,1.0
1634892031.09375,0,0,0.0,0.0,1.0
1634892031.5625,0,0,0.0,0.0,1.0
1634892032.03125,0,0,77.65678931015465,0.0,1.0
1634892032.5,0,0,0.0,0.0,1.0
1634892032.96875,0,0,10.2623081216526,0.0,1.0
1634892033.4375,0,0,17.086305567618307,0.0,1.0
1634892033.90625,0,0,18.202332598495474,0.0,1.0
1634892034.375,0,0,-7.418333245156993,0.0,1.0
1634892034.84375,0,0,0.0,0.0,1.0
1634892035.3125,0,0,78.37104771060676,0.0,1.0
1634892035.78125,0,0,14.134792574062761,0.0,1.0
1634892036.25,0,0,7.776801141699455,0.0,1.0
1634892036.71875,0,0,82.09526527996765,0.0,1.0
1634892037.1875,0,0,0.0,0.0,1.0
1634892037.65625,0,0,12.611394648040227,0.0,1.0
1634892038.125,0,0,16.874776787412404,0.0,1.0
1634892038.59375,0,0,8.438256843219177,0.0,1.0
1634892039.0625,0,0,79.99024649661591,0.0,1.0
1634892039.53125,0,0,-45.7750642126387,0.0,1.0
1634892040.0,0,0,24.734883738355023,0.0,1.0
1634892040.46875,0,0,12.401629892896239,0.0,1.0
1634892040.9375,0,0,0.0,0.0,1.0
1634892041.40625,0,0,73.5281993689564,0.0,1.0
1634892041.875,0,0,0.0,0.0,1.0
1634892042.34375,0,0,15.124466513023908,0.0,1.0
1634892042.8125,0,0,25.20033328065652,0.0,1.0
1634892043.28125,0,0,0.0,0.0,1.0
1634892043.75,0,0,74.77443100193663,0.0,1.0
1634892044.21875,0,0,7.759521503822803,0.0,1.0
1634892044.6875,0,0,20.44800847748844,0.0,1.0
1634892045.15625,0,0,0.0,0.0,1.0
1634892045.625,0,0,8.7951961069981,0.0,1.0
1634892046.09375,0,0,63.98988681260724,0.0,1.0
1634892046.5625,0,0,-22.449788650621922,0.0,1.0
1634892047.03125,0,0,23.038748764678083,0.0,1.0
1634892047.5,0,0,0.0,0.0,1.0
1634892047.96875,0,0,0.0,0.0,1.0
1634892048.4375,0,0,13.60253194482108,0.0,1.0
1634892048.90625,0,0,25.788073896036455,0.0,1.0
1634892049.375,0,0,0.0,0.0,1.0
1634892049.84375,0,0,0.09730853490654696,0.0,1.0
1634892050.3125,0,0,0.0,0.0,1.0
1634892050.78125,0,0,0.0,0.0,1.0
1634892051.25,0,0,-4.616703531769773,0.0,1.0
1634892051.71875,0,0,0.0,0.0,1.0
1634892052.1875,0,0,72.39110549240547,0.0,1.0
1634892052.65625,0,0,-12.410877787304521,0.0,1.0
1634892053.125,0,0,13.161300893610914,0.0,1.0
1634892053.59375,0,0,0.0,0.0,1.0
1634892054.0625,0,0,102.35679051555186,0.0,1.0
1634892054.53125,0,0,-13.975185791691251,0.0,1.0
1634892055.0,0,0,30.75933710302225,0.0,1.0
1634892055.46875,0,0,0.0,0.0,1.0
1634892055.9375,0,0,80.72674715643382,0.0,1.0
1634892056.40625,0,0,0.0,0.0,1.0
1634892056.875,0,0,18.966669380135983,0.0,1.0
1634892057.34375,0,0,0.0,0.0,1.0
1634892057.8125,0,0,0.0,0.0,1.0
1634892058.28125,0,0,0.0,0.0,1.0
1634892058.75,0,0,16.715398976684675,0.0,1.0
1634892059.21875,0,0,18.3345247642272,0.0,1.0
1634892059.6875,0,0,0.0,0.0,1.0
1634892060.15625,0,0,59.442630265106104,0.0,1.0
1634892060.625,0,0,0.0,0.0,1.0
1634892061.09375,0,0,20.226986505614274,0.0,1.0
1634892061.5625,0,0,16.766731026043317,0.0,1.0
1634892062.03125,0,0,0.0,0.0,1.0
1634892062.5,0,0,75.22278855153006,0.0,1.0
1634892062.96875,0,0,7.749160494272864,0.0,1.0
1634892063.4375,0,0,18.858334576369092,0.0,1.0
1634892063.90625,0,0,0.0,0.0,1.0
1634892064.375,0,0,27.64774849170665,0.0,1.0
1634892064.84375,0,0,0.0,0.0,1.0
1634892065.3125,0,0,7.913735115254951,0.0,1.0
1634892065.78125,0,0,3.412665339288191,0.0,1.0
1634892066.25,0,0,0.0,0.0,1.0
1634892066.71875,0,0,82.64864125351353,0.0,1.0
1634892067.1875,0,0,2.2422922873003217,0.0,1.0
1634892067.65625,0,0,30.90921812986428,0.0,1.0
1634892068.125,0,0,0.0,0.0,1.0
1634892068.59375,0,0,8.5979061268185,0.0,1.0
1634892069.0625,0,0,0.0,0.0,1.0
1634892069.53125,0,0,13.511221830126273,0.0,1.0
1634892070.0,0,0,15.722837804840928,0.0,1.0
1634892070.46875,0,0,0.0,0.0,1.0
1634892070.9375,0,0,9.779263540679793,0.0,1.0
1634892071.40625,0,0,7.358452629843538,0.0,1.0
1634892071.875,0,0,15.368871758898118,0.0,1.0
1634892072.34375,0,0,69.684946553077,0.0,1.0
1634892072.8125,0,0,0.0,0.0,1.0
1634892073.28125,0,0,0.0,0.0,1.0
1634892073.75,0,0,0.0,0.0,1.0
1634892074.21875,0,0,13.105707720034289,0.0,1.0
1634892074.6875,0,0,14.318651292118316,0.0,1.0
1634892075.15625,0,0,0.0,0.0,1.0
1634892075.625,0,0,15.776753941649492,0.0,1.0
1634892076.09375,0,0,10.713337024416445,0.0,1.0
1634892076.5625,0,0,0.0,0.0,1.0
1634892077.03125,0,0,5.996253761514609,0.0,1.0
1634892077.5,0,0,10.840069051937682,0.0,1.0
1634892077.96875,0,0,0.0,0.0,1.0
1634892078.4375,0,0,13.805967262878763,0.0,1.0
1634892078.90625,0,0,9.915900938324246,0.0,1.0
1634892079.375,0,0,0.0,0.0,1.0
1634892079.84375,0,0,9.8750995702602,0.0,1.0
1634892080.3125,0,0,10.120094221899302,0.0,1.0
1634892080.78125,0,0,12.37748117806329,0.0,1.0
1634892081.25,0,0,5.948840263677819,0.0,1.0
1634892081.71875,0,0,0.0,0.0,1.0
1634892082.1875,0,0,26.530743315695915,0.0,1.0
1634892082.65625,0,0,-7.4562695744837,0.0,1.0
1634892083.125,0,0,0.0,0.0,1.0
1634892083.59375,0,0,89.14059401657558,0.0,1.0
1634892084.0625,0,0,8.7443069587317,0.0,1.0
1634892084.53125,0,0,91.95998941725513,0.0,1.0
1634892085.0,0,0,0.0,0.0,1.0
1634892085.46875,0,0,16.608006076863067,0.0,1.0
1634892085.9375,0,0,10.537660028166254,0.0,1.0
1634892086.40625,0,0,0.0,0.0,1.0
1634892086.875,0,0,63.16915320083557,0.0,1.0
1634892087.34375,0,0,0.0,0.0,1.0
1634892087.8125,0,0,8.477016050489292,0.0,1.0
1634892088.28125,0,0,9.820996814036048,0.0,1.0
1634892088.75,0,0,0.0,0.0,1.0
1634892089.21875,0,0,59.28587355576602,0.0,1.0
1634892089.6875,0,0,-1.3645568713399712,0.0,1.0
1634892090.15625,0,0,2.840503659144078,0.0,1.0
1634892090.625,0,0,5.244547434006956,0.0,1.0
1634892091.09375,0,0,39.771034007502664,0.0,1.0
1634892091.5625,0,0,0.0,0.0,1.0
1634892092.03125,0,0,13.101943590100657,0.0,1.0
1634892092.5,0,0,8.702566468163937,0.0,1.0
1634892092.96875,0,0,0.0,0.0,1.0
1634892093.4375,0,0,86.57015763671959,0.0,1.0
1634892093.90625,0,0,19.274435843830634,0.0,1.0
1634892094.375,0,0,12.037687009000795,0.0,1.0
1634892094.84375,0,0,0.0,0.0,1.0
1634892095.3125,0,0,81.98795037552927,0.0,1.0
1634892095.78125,0,0,0.0,0.0,1.0
1634892096.25,0,0,18.093788555015276,0.0,1.0
1634892096.71875,0,0,0.0,0.0,1.0
1634892097.1875,0,0,98.24732587748916,0.0,1.0
1634892097.65625,0,0,0.0,0.0,1.0
1634892098.125,0,0,14.771542447050972,0.0,1.0
1634892098.59375,0,0,4.536069984944397,0.0,1.0
1634892099.0625,0,0,2.6603860817915774,0.0,1.0
1634892099.53125,0,0,82.98384173615148,0.0,1.0
1634892100.0,0,0,0.0,0.0,1.0
1634892100.46875,0,0,22.991683214726137,0.0,1.0
1634892100.9375,0,0,0.0,0.0,1.0
1634892101.40625,0,0,0.0,0.0,1.0
1634892101.875,0,0,86.6117513294813,0.0,1.0
1634892102.34375,0,0,6.190107772687546,0.0,1.0
1634892102.8125,0,0,0.0,0.0,1.0
1634892103.28125,0,0,104.86081910871657,0.0,1.0
1634892103.75,0,0,0.0,0.0,1.0
1634892104.21875,0,0,19.11018147621169,0.0,1.0
1634892104.6875,0,0,13.098318334565873,0.0,1.0
1634892105.15625,0,0,2.911619579555897,0.0,1.0
1634892105.625,0,0,97.83045521013608,0.0,1.0
1634892106.09375,0,0,-27.510979810570326,0.0,1.0
1634892106.5625,0,0,16.46030697723193,0.0,1.0
1634892107.03125,0,0,0.0,0.0,1.0
1634892107.5,0,0,111.83980141701262,0.0,1.0
1634892107.96875,0,0,-14.368260251100246,0.0,1.0
1634892108.4375,0,0,-4.642692076083996,0.0,1.0
1634892108.90625,0,0,9.69116157664941,0.0,1.0
1634892109.375,0,0,32.6089458451749,0.0,1.0
1634892109.84375,0,0,68.90370541432728,0.0,1.0
1634892110.3125,0,0,23.592559604604013,0.0,1.0
1634892110.78125,0,0,15.325065982524357,0.0,1.0
1634892111.25,0,0,0.0,0.0,1.0
1634892111.71875,0,0,91.08236832283352,0.0,1.0
1634892112.1875,0,0,0.0,0.0,1.0
1634892112.65625,0,0,0.6738663678202816,0.0,1.0
1634892113.125,0,0,8.677522083616811,0.0,1.0
1634892113.59375,0,0,64.18882174034182,0.0,1.0
1634892114.0625,0,0,-17.115729537404533,0.0,1.0
1634892114.53125,0,0,20.759419225085686,0.0,1.0
1634892115.0,0,0,-2.3501487575354862,0.0,1.0
1634892115.46875,0,0,-0.37233462981522975,0.0,1.0
1634892115.9375,0,0,88.12877233569024,0.0,1.0
1634892116.40625,0,0,0.0,0.0,1.0
1634892116.875,0,0,0.0,0.0,1.0
1634892117.34375,0,0,9.176559023063502,0.0,1.0
1634892117.8125,0,0,63.28860406483186,0.0,1.0
1634892118.28125,0,0,-27.13163688856873,0.0,1.0
1634892118.75,0,0,17.788575819812653,0.0,1.0
1634892119.21875,0,0,0.0,0.0,1.0
1634892119.6875,0,0,96.87961715731828,0.0,1.0
1634892120.15625,0,0,0.0,0.0,1.0
1634892120.625,0,0,-12.927422232811677,0.0,1.0
1634892121.09375,0,0,109.5470684731373,0.0,1.0
1634892121.5625,0,0,0.0,0.0,1.0
1634892122.03125,0,0,0.0,0.0,1.0
1634892122.5,0,0,10.49199897191169,0.0,1.0
1634892122.96875,0,0,0.0,0.0,1.0
1634892123.4375,0,0,95.38521737706206,0.0,1.0
1634892123.90625,0,0,7.4650173000376805,0.0,1.0
1634892124.375,0,0,23.090948961807634,0.0,1.0
1634892124.84375,0,0,0.0,0.0,1.0
1634892125.3125,0,0,75.08571609175446,0.0,1.0
1634892125.78125,0,0,0.0,0.0,1.0
1634892126.25,0,0,-4.2946738090419245,0.0,1.0
1634892126.71875,0,0,28.94886416029729,0.0,1.0
1634892127.1875,0,0,8.904687178241849,0.0,1.0
1634892127.65625,0,0,8.605630332306244,0.0,1.0
1634892128.125,0,0,13.94968690432877,0.0,1.0
1634892128.59375,0,0,13.805881824492612,0.0,1.0
1634892129.0625,0,0,9.961272608574863,0.0,1.0
1634892129.53125,0,0,6.080172177845825,0.0,1.0
1634892130.0,0,0,50.16849942920506,0.0,1.0
1634892130.46875,0,0,0.0,0.0,1.0
1634892130.9375,0,0,13.48294300721855,0.0,1.0
1634892131.40625,0,0,15.802220855959808,0.0,1.0
1634892131.875,0,0,14.842975700707747,0.0,1.0
1634892132.34375,0,0,11.359030624441546,0.0,1.0
1634892132.8125,0,0,9.288286920297514,0.0,1.0
1634892133.28125,0,0,14.59287906323766,0.0,1.0
1634892133.75,0,0,8.593663251114016,0.0,1.0
1634892134.21875,0,0,9.509008852225346,0.0,1.0
1634892134.6875,0,0,11.739285212970426,0.0,1.0
1634892135.15625,0,0,13.929294046997692,0.0,1.0
1634892135.625,0,0,15.109324671875967,0.0,1.0
1634892136.09375,0,0,10.65369945596739,0.0,1.0
1634892136.5625,0,0,13.936862567079181,0.0,1.0
1634892137.03125,0,0,9.94436368060202,0.0,1.0
1634892137.5,0,0,15.336135722103425,0.0,1.0
1634892137.96875,0,0,0.0,0.0,1.0
1634892138.4375,0,0,10.522287976729707,0.0,1.0
1634892138.90625,0,0,10.271000601904655,0.0,1.0
1634892139.375,0,0,0.0,0.0,1.0
1634892139.84375,0,0,80.51253011149952,0.0,1.0
1634892140.3125,0,0,0.0,0.0,1.0
1634892140.78125,0,0,41.54184011492588,0.0,1.0
1634892141.25,0,0,95.70560337202105,0.0,1.0
1634892141.71875,0,0,12.803259239110872,0.0,1.0
1634892142.1875,0,0,10.707275616907111,0.0,1.0
1634892142.65625,0,0,114.06717274948323,0.0,1.0
1634892143.125,0,0,0.0,0.0,1.0
1634892143.59375,0,0,-10.665815624789659,0.0,1.0
1634892144.0625,0,0,129.48708989052173,0.0,1.0
1634892144.53125,0,0,0.0,0.0,1.0
1634892145.0,0,0,9.83884175322069,0.0,1.0
1634892145.46875,0,0,14.323149979047553,0.0,1.0
1634892145.9375,0,0,95.82116524860047,0.0,1.0
1634892146.40625,0,0,-26.760733982588356,0.0,1.0
1634892146.875,0,0,0.0,0.0,1.0
1634892147.34375,0,0,25.485491171735053,0.0,1.0
1634892147.8125,0,0,2.5602537056500214,0.0,1.0
1634892148.28125,0,0,94.50179514448153,0.0,1.0
1634892148.75,0,0,-37.8867058505003,0.0,1.0
1634892149.21875,0,0,26.049127188813987,0.0,1.0
1634892149.6875,0,0,0.0,0.0,1.0
1634892150.15625,0,0,13.824505052922843,0.0,1.0
1634892150.625,0,0,0.0,0.0,1.0
1634892151.09375,0,0,20.542602740752134,0.0,1.0
1634892151.5625,0,0,0.0,0.0,1.0
1634892152.03125,0,0,66.38487051519664,0.0,1.0
1634892152.5,0,0,0.0,0.0,1.0
1634892152.96875,0,0,8.423217419379045,0.0,1.0
1634892153.4375,0,0,17.53628910211792,0.0,1.0
1634892153.90625,0,0,0.0,0.0,1.0
1634892154.375,0,0,69.37671926591575,0.0,1.0
1634892154.84375,0,0,-20.707450092840915,0.0,1.0
1634892155.3125,0,0,12.826756233646734,0.0,1.0
1634892155.78125,0,0,8.29787488847949,0.0,1.0
1634892156.25,0,0,93.93977357042591,0.0,1.0
1634892156.71875,0,0,-28.445081160220223,0.0,1.0
1634892157.1875,0,0,18.12392437415894,0.0,1.0
1634892157.65625,0,0,0.0,0.0,1.0
1634892158.125,0,0,66.13935907222981,0.0,1.0
1634892158.59375,0,0,0.0,0.0,1.0
1634892159.0625,0,0,16.693164054860326,0.0,1.0
1634892159.53125,0,0,21.065587843736775,0.0,1.0
1634892160.0,0,0,0.0,0.0,1.0
1634892160.46875,0,0,67.90018816568387,0.0,1.0
1634892160.9375,0,0,-4.069159674130106,0.0,1.0
1634892161.40625,0,0,11.890348690593205,0.0,1.0
1634892161.875,0,0,0.0,0.0,1.0
1634892162.34375,0,0,54.08076883465704,0.0,1.0
1634892162.8125,0,0,33.794855382421424,0.0,1.0
1634892163.28125,0,0,-6.310821688117921,0.0,1.0
1634892163.75,0,0,-9.975667006007646,0.0,1.0
1634892164.21875,0,0,0.0,0.0,1.0
1634892164.6875,0,0,69.81226104061389,0.0,1.0
1634892165.15625,0,0,-4.0800879849702,0.0,1.0
1634892165.625,0,0,15.274051705722348,0.0,1.0
1634892166.09375,0,0,35.35784243778242,0.0,1.0
1634892166.5625,0,0,0.0,0.0,1.0
1634892167.03125,0,0,24.971155427395225,0.0,1.0
1634892167.5,0,0,6.166113390425254,0.0,1.0
1634892167.96875,0,0,0.0,0.0,1.0
1634892168.4375,0,0,79.57129129830939,0.0,1.0
1634892168.90625,0,0,0.0,0.0,1.0
1634892169.375,0,0,18.07702533568065,0.0,1.0
1634892169.84375,0,0,0.0,0.0,1.0
1634892170.3125,0,0,54.83387832427188,0.0,1.0
1634892170.78125,0,0,0.0,0.0,1.0
1634892171.25,0,0,16.905041713782655,0.0,1.0
1634892171.71875,0,0,4.333181974008219,0.0,1.0
1634892172.1875,0,0,0.0,0.0,1.0
1634892172.65625,0,0,-28.5767086164226,0.0,1.0
1634892173.125,0,0,15.34552259144973,0.0,1.0
1634892173.59375,0,0,6.848228853175166,0.0,1.0
1634892174.0625,0,0,4.778941632998883,0.0,1.0
1634892174.53125,0,0,76.59505407980029,0.0,1.0
1634892175.0,0,0,6.643503881560314,0.0,1.0
1634892175.46875,0,0,8.408256179681317,0.0,1.0
1634892175.9375,0,0,0.0,0.0,1.0
1634892176.40625,0,0,27.136469797073197,0.0,1.0
1634892176.875,0,0,0.0,0.0,1.0
1634892177.34375,0,0,14.219195782281018,0.0,1.0
1634892177.8125,0,0,0.0,0.0,1.0
1634892178.28125,0,0,62.960145403082144,0.0,1.0
1634892178.75,0,0,-12.761651814961027,0.0,1.0
1634892179.21875,0,0,-4.5768867856166375,0.0,1.0
1634892179.6875,0,0,12.945364692437098,0.0,1.0
1634892180.15625,0,0,2.4290715691491602,0.0,1.0
1634892180.625,0,0,32.038294991398004,0.0,1.0
1634892181.09375,0,0,-4.919679281811768,0.0,1.0
1634892181.5625,0,0,12.120574498617621,0.0,1.0
1634892182.03125,0,0,0.0,0.0,1.0
1634892182.5,0,0,72.71562870683691,0.0,1.0
1634892182.96875,0,0,0.0,0.0,1.0
1634892183.4375,0,0,0.8076444656334922,0.0,1.0
1634892183.90625,0,0,14.114033309895463,0.0,1.0
1634892184.375,0,0,66.6385013759457,0.0,1.0
1634892184.84375,0,0,-12.337044771547147,0.0,1.0
1634892185.3125,0,0,16.465361563674495,0.0,1.0
1634892185.78125,0,0,19.32450503600365,0.0,1.0
1634892186.25,0,0,0.0,0.0,1.0
1634892186.71875,0,0,11.558461865387052,0.0,1.0
1634892187.1875,0,0,16.184905092641923,0.0,1.0
1634892187.65625,0,0,15.819110193613191,0.0,1.0
1634892188.125,0,0,14.806331451178812,0.0,1.0
1634892188.59375,0,0,15.209463490850007,0.0,1.0
1634892189.0625,0,0,11.530038165676565,0.0,1.0
1634892189.53125,0,0,7.728051684078463,0.0,1.0
1634892190.0,0,0,15.17903503022025,0.0,1.0
1634892190.46875,0,0,16.614402669024173,0.0,1.0
1634892190.9375,0,0,0.0,0.0,1.0
1634892191.40625,0,0,13.531945824755262,0.0,1.0
1634892191.875,0,0,14.430404818615443,0.0,1.0
1634892192.34375,0,0,0.0,0.0,1.0
1634892192.8125,0,0,15.116089305991805,0.0,1.0
1634892193.28125,0,0,11.858455186456268,0.0,1.0
1634892193.75,0,0,0.0,0.0,1.0
1634892194.21875,0,0,11.453236588883215,0.0,1.0
1634892194.6875,0,0,11.48530035782214,0.0,1.0
1634892195.15625,0,0,8.505746777765669,0.0,1.0
1634892195.625,0,0,26.883712228776936,0.0,1.0
1634892196.09375,0,0,3.504299769611677,0.0,1.0
1634892196.5625,0,0,3.643922877633414,0.0,1.0
1634892197.03125,0,0,13.609871816791888,0.0,1.0
1634892197.5,0,0,11.21831861360205,0.0,1.0
1634892197.96875,0,0,8.361152418543602,0.0,1.0
1634892198.4375,0,0,10.43474916871628,0.0,1.0
1634892198.90625,0,0,14.454736667339196,0.0,1.0
1634892199.375,0,0,0.0,0.0,1.0
1634892199.84375,0,0,16.871508456952032,0.0,1.0
1634892200.3125,0,0,0.0,0.0,1.0
1634892200.78125,0,0,4.765101631736532,0.0,1.0
1634892201.25,0,0,10.395506333501206,0.0,1.0
1634892201.71875,0,0,0.0,0.0,1.0
1634892202.1875,0,0,9.815271962768437,0.0,1.0
1634892202.65625,0,0,6.474188565259037,0.0,1.0
1634892203.125,0,0,6.405683317480416,0.0,1.0
1634892203.59375,0,0,0.0,0.0,1.0
1634892204.0625,0,0,41.29756010174946,0.0,1.0
1634892204.53125,0,0,-20.185557224807557,0.0,1.0
1634892205.0,0,0,0.0,0.0,1.0
1634892205.46875,0,0,0.0,0.0,1.0
1634892205.9375,0,0,9.67621654127359,0.0,1.0
1634892206.40625,0,0,0.0,0.0,1.0
1634892206.875,0,0,0.0,0.0,1.0
1634892207.34375,0,0,68.6899646504242,0.0,1.0
1634892207.8125,0,0,0.0,0.0,1.0
1634892208.28125,0,0,27.61547310764352,0.0,1.0
1634892208.75,0,0,11.017183889617428,0.0,1.0
1634892209.21875,0,0,0.0,0.0,1.0
1634892209.6875,0,0,57.93885092685564,0.0,1.0
1634892210.15625,0,0,0.0,0.0,1.0
1634892210.625,0,0,12.503037538425808,0.0,1.0
1634892211.09375,0,0,0.0,0.0,1.0
1634892211.5625,0,0,82.98252524331247,0.0,1.0
1634892212.03125,0,0,0.0,0.0,1.0
1634892212.5,0,0,12.559023274791185,0.0,1.0
1634892212.96875,0,0,0.0,0.0,1.0
1634892213.4375,0,0,104.42897683290064,0.0,1.0
1634892213.90625,0,0,-4.308220793463055,0.0,1.0
1634892214.375,0,0,31.20451155965873,0.0,1.0
1634892214.84375,0,0,0.0,0.0,1.0
1634892215.3125,0,0,43.211985016089486,0.0,1.0
1634892215.78125,0,0,0.0,0.0,1.0
1634892216.25,0,0,9.42755196754207,0.0,1.0
1634892216.71875,0,0,16.135193389781325,0.0,1.0
1634892217.1875,0,0,0.0,0.0,1.0
1634892217.65625,0,0,69.09041203322293,0.0,1.0
1634892218.125,0,0,10.293631454296605,0.0,1.0
1634892218.59375,0,0,15.571735023321645,0.0,1.0
1634892219.0625,0,0,0.0,0.0,1.0
1634892219.53125,0,0,80.23226348730216,0.0,1.0
1634892220.0,0,0,0.0,0.0,1.0
1634892220.46875,0,0,11.57598173197161,0.0,1.0
1634892220.9375,0,0,14.084144758101093,0.0,1.0
1634892221.40625,0,0,88.99253176054631,0.0,1.0
1634892221.875,0,0,0.0,0.0,1.0
1634892222.34375,0,0,24.04863698373105,0.0,1.0
1634892222.8125,0,0,11.524964690007904,0.0,1.0
1634892223.28125,0,0,0.0,0.0,1.0
1634892223.75,0,0,68.05376619975559,0.0,1.0
1634892224.21875,0,0,0.0,0.0,1.0
1634892224.6875,0,0,0.572372562064158,0.0,1.0
1634892225.15625,0,0,26.795236544324894,0.0,1.0
1634892225.625,0,0,46.01231074439084,0.0,1.0
1634892226.09375,0,0,-9.43821115515324,0.0,1.0
1634892226.5625,0,0,15.600702384108281,0.0,1.0
1634892227.03125,0,0,0.0,0.0,1.0
1634892227.5,0,0,33.6282516659489,0.0,1.0
1634892227.96875,0,0,59.515136052350854,0.0,1.0
1634892228.4375,0,0,25.819796620441178,0.0,1.0
1634892228.90625,0,0,25.64835279916852,0.0,1.0
1634892229.375,0,0,9.146228294354032,0.0,1.0
1634892229.84375,0,0,0.0,0.0,1.0
1634892230.3125,0,0,58.96014034880112,0.0,1.0
1634892230.78125,0,0,-20.896814117969527,0.0,1.0
1634892231.25,0,0,0.0,0.0,1.0
1634892231.71875,0,0,98.6754290337713,0.0,1.0
1634892232.1875,0,0,-27.572362589006723,0.0,1.0
1634892232.65625,0,0,13.634119046194423,0.0,1.0
1634892233.125,0,0,0.0,0.0,1.0
1634892233.59375,0,0,91.33541315087777,0.0,1.0
1634892234.0625,0,0,20.890144295603466,0.0,1.0
1634892234.53125,0,0,0.0,0.0,1.0
1634892235.0,0,0,11.7056156411512,0.0,1.0
1634892235.46875,0,0,0.0,0.0,1.0
1634892235.9375,0,0,80.6087186193124,0.0,1.0
1634892236.40625,0,0,19.894115043407936,0.0,1.0
1634892236.875,0,0,23.072853879753698,0.0,1.0
1634892237.34375,0,0,0.0,0.0,1.0
1634892237.8125,0,0,0.0,0.0,1.0
1634892238.28125,0,0,60.98329659562347,0.0,1.0
1634892238.75,0,0,-13.437519242251442,0.0,1.0
1634892239.21875,0,0,12.528150413652833,0.0,1.0
1634892239.6875,0,0,93.57484848620163,0.0,1.0
1634892240.15625,0,0,0.0,0.0,1.0
1634892240.625,0,0,21.214004078859222,0.0,1.0
1634892241.09375,0,0,3.9967697435889242,0.0,1.0
1634892241.5625,0,0,73.01751025380825,0.0,1.0
1634892242.03125,0,0,-22.648132238991423,0.0,1.0
1634892242.5,0,0,13.486867153875165,0.0,1.0
1634892242.96875,0,0,0.0,0.0,1.0
1634892243.4375,0,0,5.850931293750224,0.0,1.0
1634892243.90625,0,0,37.305483918366704,0.0,1.0
1634892244.375,0,0,-3.0085279141101515,0.0,1.0
1634892244.84375,0,0,13.847066283136332,0.0,1.0
1634892245.3125,0,0,9.04340326803536,0.0,1.0
1634892245.78125,0,0,0.0,0.0,1.0
1634892246.25,0,0,13.800985754349297,0.0,1.0
1634892246.71875,0,0,8.542362906953862,0.0,1.0
1634892247.1875,0,0,0.0,0.0,1.0
1634892247.65625,0,0,38.84587128476759,0.0,1.0
1634892248.125,0,0,5.736938861054388,0.0,1.0
1634892248.59375,0,0,67.94119722198505,0.0,1.0
1634892249.0625,0,0,-11.609382877885126,0.0,1.0
1634892249.53125,0,0,15.088847867902219,0.0,1.0
1634892250.0,0,0,0.0,0.0,1.0
1634892250.46875,0,0,11.458854273519245,0.0,1.0
1634892250.9375,0,0,4.19617515481367,0.0,1.0
1634892251.40625,0,0,5.579902924639381,0.0,1.0
1634892251.875,0,0,13.856660570857459,0.0,1.0
1634892252.34375,0,0,12.00828521739518,0.0,1.0
1634892252.8125,0,0,0.710563193757446,0.0,1.0
1634892253.28125,0,0,10.61635146570122,0.0,1.0
1634892253.75,0,0,30.358337037520016,0.0,1.0
1634892254.21875,0,0,13.071740695351645,0.0,1.0
1634892254.6875,0,0,0.0,0.0,1.0
1634892255.15625,0,0,30.597842708352854,0.0,1.0
1634892255.625,0,0,8.006181180213021,0.0,1.0
1634892256.09375,0,0,0.0,0.0,1.0
1634892256.5625,0,0,44.06246844048889,0.0,1.0
1634892257.03125,0,0,25.791022235799463,0.0,1.0
1634892257.5,0,0,41.66812067924826,0.0,1.0
1634892257.96875,0,0,71.46353311380945,0.0,1.0
1634892258.4375,0,0,-11.828912222689203,0.0,1.0
1634892258.90625,0,0,35.7268900398973,0.0,1.0
1634892259.375,0,0,0.0,0.0,1.0
1634892259.84375,0,0,15.250559255552808,0.0,1.0
1634892260.3125,0,0,0.0,0.0,1.0
1634892260.78125,0,0,26.221852227788894,0.0,1.0
1634892261.25,0,0,27.82766257935578,0.0,1.0
1634892261.71875,0,0,0.0,0.0,1.0
1634892262.1875,0,0,0.0,0.0,1.0
1634892262.65625,0,0,62.371406813250275,0.0,1.0
1634892263.125,0,0,0.0,0.0,1.0
1634892263.59375,0,0,43.41306897578483,0.0,1.0
1634892264.0625,0,0,0.0,0.0,1.0
1634892264.53125,0,0,42.634102726683906,0.0,1.0
1634892265.0,0,0,0.3519119937449097,0.0,1.0
1634892265.46875,0,0,19.611215631879077,0.0,1.0
1634892265.9375,0,0,0.0,0.0,1.0
1634892266.40625,0,0,48.87114924051741,0.0,1.0
1634892266.875,0,0,0.0,0.0,1.0
1634892267.34375,0,0,-4.928069943722062,0.0,1.0
1634892267.8125,0,0,0.0,0.0,1.0
1634892268.28125,0,0,0.0,0.0,1.0
1634892268.75,0,0,68.87031178842345,0.0,1.0
1634892269.21875,0,0,-1.5234536245505506,0.0,1.0
1634892269.6875,0,0,15.710137332080807,0.0,1.0
1634892270.15625,0,0,102.4405611162372,0.0,1.0
1634892270.625,0,0,0.0,0.0,1.0
1634892271.09375,0,0,32.541053095620036,0.0,1.0
1634892271.5625,0,0,0.0,0.0,1.0
1634892272.03125,0,0,-3.251254074694015,0.0,1.0
1634892272.5,0,0,74.36662271190052,0.0,1.0
1634892272.96875,0,0,-28.49437860928363,0.0,1.0
1634892273.4375,0,0,8.264399537340944,0.0,1.0
1634892273.90625,0,0,9.784335810031578,0.0,1.0
1634892274.375,0,0,57.46552683126553,0.0,1.0
1634892274.84375,0,0,-18.8279674089184,0.0,1.0
1634892275.3125,0,0,17.710717945971673,0.0,1.0
1634892275.78125,0,0,0.0,0.0,1.0
1634892276.25,0,0,24.292509216215425,0.0,1.0
1634892276.71875,0,0,69.7391401868485,0.0,1.0
1634892277.1875,0,0,-52.05453610858617,0.0,1.0
1634892277.65625,0,0,19.858587968404887,0.0,1.0
1634892278.125,0,0,14.05558427068119,0.0,1.0
1634892278.59375,0,0,35.69158332701884,0.0,1.0
1634892279.0625,0,0,-11.249809864270075,0.0,1.0
1634892279.53125,0,0,19.221471803529308,0.0,1.0
1634892280.0,0,0,0.0,0.0,1.0
1634892280.46875,0,0,64.11390214104357,0.0,1.0
1634892280.9375,0,0,0.0,0.0,1.0
1634892281.40625,0,0,33.17583071933852,0.0,1.0
1634892281.875,0,0,4.068942683279377,0.0,1.0
1634892282.34375,0,0,15.048437565731271,0.0,1.0
1634892282.8125,0,0,57.071545328007325,0.0,1.0
1634892283.28125,0,0,-19.6438583159048,0.0,1.0
1634892283.75,0,0,20.534344303298834,0.0,1.0
1634892284.21875,0,0,0.0,0.0,1.0
1634892284.6875,0,0,35.15924570864486,0.0,1.0
1634892285.15625,0,0,-0.4772833736518735,0.0,1.0
1634892285.625,0,0,14.260589468831398,0.0,1.0
1634892286.09375,0,0,10.407900867471216,0.0,1.0
1634892286.5625,0,0,64.74579336051809,0.0,1.0
1634892287.03125,0,0,0.0,0.0,1.0
1634892287.5,0,0,23.19617665347795,0.0,1.0
1634892287.96875,0,0,10.70170037040162,0.0,1.0
1634892288.4375,0,0,0.0,0.0,1.0
1634892288.90625,0,0,81.89000203432292,0.0,1.0
1634892289.375,0,0,0.0,0.0,1.0
1634892289.84375,0,0,15.927055061277516,0.0,1.0
1634892290.3125,0,0,0.0,0.0,1.0
1634892290.78125,0,0,70.20235629905605,0.0,1.0
1634892291.25,0,0,-5.515832018291559,0.0,1.0
1634892291.71875,0,0,20.565819672622826,0.0,1.0
1634892292.1875,0,0,0.0,0.0,1.0
1634892292.65625,0,0,85.18330621490085,0.0,1.0
1634892293.125,0,0,6.332425738401352,0.0,1.0
1634892293.59375,0,0,18.859073381731207,0.0,1.0
1634892294.0625,0,0,0.0,0.0,1.0
1634892294.53125,0,0,74.30305376850937,0.0,1.0
1634892295.0,0,0,0.0,0.0,1.0
1634892295.46875,0,0,29.182483973006715,0.0,1.0
1634892295.9375,0,0,0.05893218030348766,0.0,1.0
1634892296.40625,0,0,64.67677010418848,0.0,1.0
1634892296.875,0,0,-24.56354391380979,0.0,1.0
1634892297.34375,0,0,0.0,0.0,1.0
1634892297.8125,0,0,29.098441290084818,0.0,1.0
1634892298.28125,0,0,-7.28605347048274,0.0,1.0
1634892298.75,0,0,88.43024248651349,0.0,1.0
1634892299.21875,0,0,0.0,0.0,1.0
1634892299.6875,0,0,38.55434605256445,0.0,1.0
1634892300.15625,0,0,0.0,0.0,1.0
1634892300.625,0,0,0.0,0.0,1.0
1634892301.09375,0,0,69.39371384541238,0.0,1.0
1634892301.5625,0,0,-10.834651719566732,0.0,1.0
1634892302.03125,0,0,18.070152319215154,0.0,1.0
1634892302.5,0,0,0.0,0.0,1.0
1634892302.96875,0,0,62.44192151157864,0.0,1.0
1634892303.4375,0,0,27.80409358570941,0.0,1.0
1634892303.90625,0,0,18.653892174464012,0.0,1.0
1634892304.375,0,0,0.0,0.0,1.0
1634892304.84375,0,0,15.190077034734374,0.0,1.0
1634892305.3125,0,0,11.210361330871388,0.0,1.0
1634892305.78125,0,0,10.669491617597513,0.0,1.0
1634892306.25,0,0,0.0,0.0,1.0
1634892306.71875,0,0,0.0,0.0,1.0
1634892307.1875,0,0,9.046155887989483,0.0,1.0
1634892307.65625,0,0,14.394432370495416,0.0,1.0
1634892308.125,0,0,0.0,0.0,1.0
1634892308.59375,0,0,4.821125445484905,0.0,1.0
1634892309.0625,0,0,0.0,0.0,1.0
1634892309.53125,0,0,92.58067884786874,0.0,1.0
1634892310.0,0,0,36.98142362982095,0.0,1.0
1634892310.46875,0,0,0.0,0.0,1.0
1634892310.9375,0,0,70.26716028257407,0.0,1.0
1634892311.40625,0,0,-17.4652110719854,0.0,1.0
1634892311.875,0,0,26.827476897431268,0.0,1.0
1634892312.34375,0,0,57.778768789279496,0.0,1.0
1634892312.8125,0,0,-14.815307887015626,0.0,1.0
1634892313.28125,0,0,32.290295048957525,0.0,1.0
1634892313.75,0,0,0.0,0.0,1.0
1634892314.21875,0,0,21.356550558397416,0.0,1.0
1634892314.6875,0,0,18.5437735823441,0.0,1.0
1634892315.15625,0,0,0.0,0.0,1.0
1634892315.625,0,0,15.591245888811683,0.0,1.0
1634892316.09375,0,0,18.540147799412633,0.0,1.0
1634892316.5625,0,0,16.009268242123845,0.0,1.0
1634892317.03125,0,0,15.552411286643482,0.0,1.0
1634892317.5,0,0,14.141536952877372,0.0,1.0
1634892317.96875,0,0,9.055891302260546,0.0,1.0
1634892318.4375,0,0,17.416394986226113,0.0,1.0
1634892318.90625,0,0,20.37256120280855,0.0,1.0
1634892319.375,0,0,0.0,0.0,1.0
1634892319.84375,0,0,0.0,0.0,1.0
1634892320.3125,0,0,31.692687014162534,0.0,1.0
1634892320.78125,0,0,3.2242612460318862,0.0,1.0
1634892321.25,0,0,9.36409682613333,0.0,1.0
1634892321.71875,0,0,23.732748333190536,0.0,1.0
1634892322.1875,0,0,-0.04966199135325036,0.0,1.0
1634892322.65625,0,0,21.62690922708333,0.0,1.0
1634892323.125,0,0,0.0,0.0,1.0
1634892323.59375,0,0,21.892118243018146,0.0,1.0
1634892324.0625,0,0,12.26746338464179,0.0,1.0
1634892324.53125,0,0,-4.895394688042502,0.0,1.0
1634892325.0,0,0,24.63226855079673,0.0,1.0
1634892325.46875,0,0,8.485646038731863,0.0,1.0
1634892325.9375,0,0,6.15412230900141,0.0,1.0
1634892326.40625,0,0,56.60294944651666,0.0,1.0
1634892326.875,0,0,0.0,0.0,1.0
1634892327.34375,0,0,7.9722321534399985,0.0,1.0
1634892327.8125,0,0,0.0,0.0,1.0
1634892328.28125,0,0,34.4372093882302,0.0,1.0
1634892328.75,0,0,2.4348713753544327,0.0,1.0
1634892329.21875,0,0,0.0,0.0,1.0
1634892329.6875,0,0,19.68189408975163,0.0,1.0
1634892330.15625,0,0,17.04642615542047,0.0,1.0
1634892330.625,0,0,-0.7815233892561553,0.0,1.0
1634892331.09375,0,0,2.8660143389046255,0.0,1.0
1634892331.5625,0,0,74.93662895857948,0.0,1.0
1634892332.03125,0,0,4.618883625783554,0.0,1.0
1634892332.5,0,0,6.484948485896204,0.0,1.0
1634892332.96875,0,0,0.0,0.0,1.0
1634892333.4375,0,0,94.35032523905913,0.0,1.0
1634892333.90625,0,0,-26.61734032274754,0.0,1.0
1634892334.375,0,0,21.809672071234164,0.0,1.0
1634892334.84375,0,0,0.0,0.0,1.0
1634892335.3125,0,0,87.84367549968044,0.0,1.0
1634892335.78125,0,0,0.0,0.0,1.0
1634892336.25,0,0,23.947460181349648,0.0,1.0
1634892336.71875,0,0,9.428583873738802,0.0,1.0
1634892337.1875,0,0,97.92485636284366,0.0,1.0
1634892337.65625,0,0,0.0,0.0,1.0
1634892338.125,0,0,17.622852363688878,0.0,1.0
1634892338.59375,0,0,0.0,0.0,1.0
1634892339.0625,0,0,85.3596281755811,0.0,1.0
1634892339.53125,0,0,14.320272760370122,0.0,1.0
1634892340.0,0,0,26.774952219744826,0.0,1.0
1634892340.46875,0,0,11.966408537657527,0.0,1.0
1634892340.9375,0,0,20.29605301129013,0.0,1.0
1634892341.40625,0,0,11.93380443792635,0.0,1.0
1634892341.875,0,0,0.0,0.0,1.0
1634892342.34375,0,0,0.0,0.0,1.0
1634892342.8125,0,0,132.76192652300134,0.0,1.0
1634892343.28125,0,0,6.445306315164673,0.0,1.0
1634892343.75,0,0,37.19665735223622,0.0,1.0
1634892344.21875,0,0,0.0,0.0,1.0
1634892344.6875,0,0,0.0,0.0,1.0
1634892345.15625,0,0,137.1640589987792,0.0,1.0
1634892345.625,0,0,-21.41295440564254,0.0,1.0
1634892346.09375,0,0,13.489482283772153,0.0,1.0
1634892346.5625,0,0,8.37513704403476,0.0,1.0
1634892347.03125,0,0,145.5080809618368,0.0,1.0
1634892347.5,0,0,0.0,0.0,1.0
1634892347.96875,0,0,32.18578233434203,0.0,1.0
1634892348.4375,0,0,56.72817830050338,0.0,1.0
1634892348.90625,0,0,70.05384927026302,0.0,1.0
1634892349.375,0,0,-26.70600289072634,0.0,1.0
1634892349.84375,0,0,30.607355997312034,0.0,1.0
1634892350.3125,0,0,6.859797096990976,0.0,1.0
1634892350.78125,0,0,19.40219224707188,0.0,1.0
1634892351.25,0,0,114.55223632735047,0.0,1.0
1634892351.71875,0,0,33.094774209124594,0.0,1.0
1634892352.1875,0,0,0.0,0.0,1.0
1634892352.65625,0,0,0.0,0.0,1.0
1634892353.125,0,0,57.96271848354432,0.0,1.0
1634892353.59375,0,0,-18.069918376904024,0.0,1.0
1634892354.0625,0,0,20.447420875417947,0.0,1.0
1634892354.53125,0,0,0.0,0.0,1.0
1634892355.0,0,0,67.7349496169282,0.0,1.0
1634892355.46875,0,0,0.0,0.0,1.0
1634892355.9375,0,0,22.704705041277165,0.0,1.0
1634892356.40625,0,0,0.0,0.0,1.0
1634892356.875,0,0,56.866282591305236,0.0,1.0
1634892357.34375,0,0,-10.030213362021415,0.0,1.0
1634892357.8125,0,0,34.21095538527746,0.0,1.0
1634892358.28125,0,0,0.0,0.0,1.0
1634892358.75,0,0,0.0,0.0,1.0
1634892359.21875,0,0,58.12157561812387,0.0,1.0
1634892359.6875,0,0,-26.670453908327158,0.0,1.0
1634892360.15625,0,0,29.42936602766228,0.0,1.0
1634892360.625,0,0,0.0,0.0,1.0
1634892361.09375,0,0,53.117840133047004,0.0,1.0
1634892361.5625,0,0,14.15301249527175,0.0,1.0
1634892362.03125,0,0,23.30573127701068,0.0,1.0
1634892362.5,0,0,0.0,0.0,1.0
1634892362.96875,0,0,19.391711996295093,0.0,1.0
1634892363.4375,0,0,0.0,0.0,1.0
1634892363.90625,0,0,5.284148204486016,0.0,1.0
1634892364.375,0,0,24.048187695330146,0.0,1.0
1634892364.84375,0,0,21.979528830708155,0.0,1.0
1634892365.3125,0,0,2.5076131678463707,0.0,1.0
1634892365.78125,0,0,0.0,0.0,1.0
1634892366.25,0,0,117.3169396747067,0.0,1.0
1634892366.71875,0,0,-3.414395763316378,0.0,1.0
1634892367.1875,0,0,30.103769099364506,0.0,1.0
1634892367.65625,0,0,19.187660530094064,0.0,1.0
1634892368.125,0,0,1.1825945052579179,0.0,1.0
1634892368.59375,0,0,-9.464606437531424,0.0,1.0
1634892369.0625,0,0,122.51832504957919,0.0,1.0
1634892369.53125,0,0,-72.39937093811344,0.0,1.0
1634892370.0,0,0,13.502617183724766,0.0,1.0
1634892370.46875,0,0,13.460342818555036,0.0,1.0
1634892370.9375,0,0,54.28482557159459,0.0,1.0
1634892371.40625,0,0,-16.555749641473962,0.0,1.0
1634892371.875,0,0,31.155330352780503,0.0,1.0
1634892372.34375,0,0,0.0,0.0,1.0
1634892372.8125,0,0,8.459578640997696,0.0,1.0
1634892373.28125,0,0,22.87497640476244,0.0,1.0
1634892373.75,0,0,0.0,0.0,1.0
1634892374.21875,0,0,13.774979220088165,0.0,1.0
1634892374.6875,0,0,14.181362117735496,0.0,1.0
1634892375.15625,0,0,12.413513765222413,0.0,1.0
1634892375.625,0,0,15.82330632466003,0.0,1.0
1634892376.09375,0,0,0.0,0.0,1.0
1634892376.5625,0,0,24.037953237485457,0.0,1.0
1634892377.03125,0,0,14.537098852047132,0.0,1.0
1634892377.5,0,0,0.0,0.0,1.0
1634892377.96875,0,0,30.737694696181485,0.0,1.0
1634892378.4375,0,0,16.237921205768146,0.0,1.0
1634892378.90625,0,0,0.0,0.0,1.0
1634892379.375,0,0,17.653862075038486,0.0,1.0
1634892379.84375,0,0,4.2589320287652415,0.0,1.0
1634892380.3125,0,0,14.713620994724259,0.0,1.0
1634892380.78125,0,0,51.340026289461676,0.0,1.0
1634892381.25,0,0,-39.84819042045711,0.0,1.0
1634892381.71875,0,0,34.125150935170836,0.0,1.0
1634892382.1875,0,0,18.99571083183344,0.0,1.0
1634892382.65625,0,0,-12.311098045320875,0.0,1.0
1634892383.125,0,0,11.284378746416301,0.0,1.0
1634892383.59375,0,0,0.0,0.0,1.0
1634892384.0625,0,0,54.819893372272965,0.0,1.0
1634892384.53125,0,0,0.0,0.0,1.0
1634892385.0,0,0,27.44620632588926,0.0,1.0
1634892385.46875,0,0,0.0,0.0,1.0
1634892385.9375,0,0,49.17430750900209,0.0,1.0
1634892386.40625,0,0,0.0,0.0,1.0
1634892386.875,0,0,-6.648840956104518,0.0,1.0
1634892387.34375,0,0,21.11227835572301,0.0,1.0
1634892387.8125,0,0,79.3234654630334,0.0,1.0
1634892388.28125,0,0,0.0,0.0,1.0
1634892388.75,0,0,35.463416942521626,0.0,1.0
1634892389.21875,0,0,0.0,0.0,1.0
1634892389.6875,0,0,9.214260501887027,0.0,1.0
1634892390.15625,0,0,80.69664485881361,0.0,1.0
1634892390.625,0,0,0.0,0.0,1.0
1634892391.09375,0,0,27.489528209167258,0.0,1.0
1634892391.5625,0,0,9.854142024191505,0.0,1.0
1634892392.03125,0,0,0.0,0.0,1.0
1634892392.5,0,0,72.50263009874776,0.0,1.0
1634892392.96875,0,0,1.8690181118925027,0.0,1.0
1634892393.4375,0,0,5.755105472350569,0.0,1.0
1634892393.90625,0,0,22.793062588385688,0.0,1.0
1634892394.375,0,0,40.2890990333905,0.0,1.0
1634892394.84375,0,0,-25.049636532383257,0.0,1.0
1634892395.3125,0,0,6.302627204784763,0.0,1.0
1634892395.78125,0,0,0.0,0.0,1.0
1634892396.25,0,0,92.29800600842175,0.0,1.0
1634892396.71875,0,0,0.0,0.0,1.0
1634892397.1875,0,0,13.36664797832324,0.0,1.0
1634892397.65625,0,0,29.107121371508363,0.0,1.0
1634892398.125,0,0,59.4385455664686,0.0,1.0
1634892398.59375,0,0,-52.05074624635376,0.0,1.0
1634892399.0625,0,0,32.89436579869818,0.0,1.0
1634892399.53125,0,0,26.822303583522352,0.0,1.0
1634892400.0,0,0,0.0,0.0,1.0
1634892400.46875,0,0,3.876523772791572,0.0,1.0
1634892400.9375,0,0,0.0,0.0,1.0
1634892401.40625,0,0,79.27094905979882,0.0,1.0
1634892401.875,0,0,-29.530137623363895,0.0,1.0
1634892402.34375,0,0,0.0,0.0,1.0
1634892402.8125,0,0,123.388548123573,0.0,1.0
1634892403.28125,0,0,13.487004128321315,0.0,1.0
1634892403.75,0,0,10.144963190417545,0.0,1.0
1634892404.21875,0,0,8.119584914473272,0.0,1.0
1634892404.6875,0,0,74.25534222544178,0.0,1.0
1634892405.15625,0,0,26.242492133512258,0.0,1.0
1634892405.625,0,0,0.0,0.0,1.0
1634892406.09375,0,0,10.787093567044417,0.0,1.0
1634892406.5625,0,0,85.11923149792783,0.0,1.0
1634892407.03125,0,0,-43.97929426914987,0.0,1.0
1634892407.5,0,0,24.69346539501016,0.0,1.0
1634892407.96875,0,0,13.781661426029686,0.0,1.0
1634892408.4375,0,0,8.781040879329383,0.0,1.0
1634892408.90625,0,0,40.88961182046834,0.0,1.0
1634892409.375,0,0,-3.1264594812007918,0.0,1.0
1634892409.84375,0,0,0.0,0.0,1.0
1634892410.3125,0,0,83.2873763593075,0.0,1.0
1634892410.78125,0,0,0.0,0.0,1.0
1634892411.25,0,0,-1.5175267648623463,0.0,1.0
1634892411.71875,0,0,0.0,0.0,1.0
1634892412.1875,0,0,0.0,0.0,1.0
1634892412.65625,0,0,19.703801271696985,0.0,1.0
1634892413.125,0,0,-1.7181110738177305,0.0,1.0
1634892413.59375,0,0,21.590978711678904,0.0,1.0
1634892414.0625,0,0,0.0,0.0,1.0
1634892414.53125,0,0,5.228719094333176,0.0,1.0
1634892415.0,0,0,78.15449336587297,0.0,1.0
1634892415.46875,0,0,0.0,0.0,1.0
1634892415.9375,0,0,15.4574039607244,0.0,1.0
1634892416.40625,0,0,82.94649663870429,0.0,1.0
1634892416.875,0,0,0.0,0.0,1.0
1634892417.34375,0,0,11.059832908263171,0.0,1.0
1634892417.8125,0,0,10.613490249256854,0.0,1.0
1634892418.28125,0,0,83.83136937483079,0.0,1.0
1634892418.75,0,0,-31.49323254235256,0.0,1.0
1634892419.21875,0,0,22.99199761715475,0.0,1.0
1634892419.6875,0,0,11.643777898367635,0.0,1.0
1634892420.15625,0,0,11.434772417169755,0.0,1.0
1634892420.625,0,0,86.60227466248709,0.0,1.0
1634892421.09375,0,0,0.0,0.0,1.0
1634892421.5625,0,0,26.25274256557911,0.0,1.0
1634892422.03125,0,0,17.921519441335562,0.0,1.0
1634892422.5,0,0,14.198779260877563,0.0,1.0
1634892422.96875,0,0,10.256354582407718,0.0,1.0
1634892423.4375,0,0,24.03558299798392,0.0,1.0
1634892423.90625,0,0,16.280715814873528,0.0,1.0
1634892424.375,0,0,15.897212634001072,0.0,1.0
1634892424.84375,0,0,19.42845014799497,0.0,1.0
1634892425.3125,0,0,11.12580674916857,0.0,1.0
1634892425.78125,0,0,26.87697504877793,0.0,1.0
1634892426.25,0,0,0.0,0.0,1.0
1634892426.71875,0,0,21.06872848985877,0.0,1.0
1634892427.1875,0,0,12.248930618132961,0.0,1.0
1634892427.65625,0,0,27.091135508175675,0.0,1.0
1634892428.125,0,0,0.0,0.0,1.0
1634892428.59375,0,0,15.954929728416316,0.0,1.0
1634892429.0625,0,0,18.481077722948555,0.0,1.0
1634892429.53125,0,0,0.0,0.0,1.0
1634892430.0,0,0,15.74823815803243,0.0,1.0
1634892430.46875,0,0,89.55336720653972,0.0,1.0
1634892430.9375,0,0,-43.54957935566902,0.0,1.0
1634892431.40625,0,0,22.6559016728639,0.0,1.0
1634892431.875,0,0,21.14147704059037,0.0,1.0
1634892432.34375,0,0,7.641633961895242,0.0,1.0
1634892432.8125,0,0,1.032173746045854,0.0,1.0
1634892433.28125,0,0,17.310504169506345,0.0,1.0
1634892433.75,0,0,14.767237462439201,0.0,1.0
1634892434.21875,0,0,0.0,0.0,1.0
1634892434.6875,0,0,14.790808012216072,0.0,1.0
1634892435.15625,0,0,9.634706638313391,0.0,1.0
1634892435.625,0,0,1.5148753553567524,0.0,1.0
1634892436.09375,0,0,24.35804985531028,0.0,1.0
1634892436.5625,0,0,13.102904950582426,0.0,1.0
1634892437.03125,0,0,8.939315290140664,0.0,1.0
1634892437.5,0,0,8.46566590528949,0.0,1.0
1634892437.96875,0,0,6.491007548812687,0.0,1.0
1634892438.4375,0,0,46.16454061472575,0.0,1.0
1634892438.90625,0,0,0.0,0.0,1.0
1634892439.375,0,0,26.186456306309257,0.0,1.0
1634892439.84375,0,0,7.629238080697726,0.0,1.0
1634892440.3125,0,0,6.232999316657386,0.0,1.0
1634892440.78125,0,0,11.2500197738363,0.0,1.0
1634892441.25,0,0,9.964631626739045,0.0,1.0
1634892441.71875,0,0,14.388916509714093,0.0,1.0
1634892442.1875,0,0,0.0,0.0,1.0
1634892442.65625,0,0,12.119991726937338,0.0,1.0
1634892443.125,0,0,20.621699421754,0.0,1.0
1634892443.59375,0,0,0.0,0.0,1.0
1634892444.0625,0,0,0.0,0.0,1.0
1634892444.53125,0,0,13.409944812587025,0.0,1.0
1634892445.0,0,0,59.91853944124892,0.0,1.0
1634892445.46875,0,0,0.0,0.0,1.0
1634892445.9375,0,0,76.62905475820268,0.0,1.0
1634892446.40625,0,0,0.0,0.0,1.0
1634892446.875,0,0,18.79183716173051,0.0,1.0
1634892447.34375,0,0,0.0,0.0,1.0
1634892447.8125,0,0,12.002506662720517,0.0,1.0
1634892448.28125,0,0,0.0,0.0,1.0
1634892448.75,0,0,0.0,0.0,1.0
1634892449.21875,0,0,10.059367317459346,0.0,1.0
1634892449.6875,0,0,0.0,0.0,1.0
1634892450.15625,0,0,63.38765211404336,0.0,1.0
1634892450.625,0,0,0.0,0.0,1.0
1634892451.09375,0,0,-3.0863200475011743,0.0,1.0
1634892451.5625,0,0,19.54959743489439,0.0,1.0
1634892452.03125,0,0,0.0,0.0,1.0
1634892452.5,0,0,0.0,0.0,1.0
1634892452.96875,0,0,20.392853242561472,0.0,1.0
1634892453.4375,0,0,0.0,0.0,1.0
1634892453.90625,0,0,38.83992469967013,0.0,1.0
1634892454.375,0,0,0.0,0.0,1.0
1634892454.84375,0,0,-11.462225958430718,0.0,1.0
1634892455.3125,0,0,28.295102960073287,0.0,1.0
1634892455.78125,0,0,0.0,0.0,1.0
1634892456.25,0,0,42.65696011896442,0.0,1.0
1634892456.71875,0,0,-24.109398960364157,0.0,1.0
1634892457.1875,0,0,-0.39167432693798543,0.0,1.0
1634892457.65625,0,0,0.0,0.0,1.0
1634892458.125,0,0,0.0,0.0,1.0
1634892458.59375,0,0,0.0,0.0,1.0
1634892459.0625,0,0,17.219795200399783,0.0,1.0
1634892459.53125,0,0,0.0,0.0,1.0
1634892460.0,0,0,17.59028901663144,0.0,1.0
1634892460.46875,0,0,44.68506651964981,0.0,1.0
1634892460.9375,0,0,-20.7337196344001,0.0,1.0
1634892461.40625,0,0,15.101390141240852,0.0,1.0
1634892461.875,0,0,0.0,0.0,1.0
1634892462.34375,0,0,52.17546510732822,0.0,1.0
1634892462.8125,0,0,7.323934042811416,0.0,1.0
1634892463.28125,0,0,17.916801015340337,0.0,1.0
1634892463.75,0,0,21.506939023151723,0.0,1.0
1634892464.21875,0,0,49.88087836625134,0.0,1.0
1634892464.6875,0,0,0.0,0.0,1.0
1634892465.15625,0,0,23.837197651622812,0.0,1.0
1634892465.625,0,0,22.4770957707877,0.0,1.0
1634892466.09375,0,0,41.235174573716456,0.0,1.0
1634892466.5625,0,0,2.0100720661610727,0.0,1.0
1634892467.03125,0,0,19.54177115429275,0.0,1.0
1634892467.5,0,0,0.0,0.0,1.0
1634892467.96875,0,0,67.62792700033249,0.0,1.0
1634892468.4375,0,0,0.0,0.0,1.0
1634892468.90625,0,0,12.194846231079271,0.0,1.0
1634892469.375,0,0,15.868237128419938,0.0,1.0
1634892469.84375,0,0,0.0,0.0,1.0
1634892470.3125,0,0,60.457131601039904,0.0,1.0
1634892470.78125,0,0,6.849637423526192,0.0,1.0
1634892471.25,0,0,15.089570069832957,0.0,1.0
1634892471.71875,0,0,0.0,0.0,1.0
1634892472.1875,0,0,-17.239149560530798,0.0,1.0
1634892472.65625,0,0,-0.040849178256094715,0.0,1.0
1634892473.125,0,0,14.156931640127418,0.0,1.0
1634892473.59375,0,0,0.0,0.0,1.0
1634892474.0625,0,0,63.253733330818726,0.0,1.0
1634892474.53125,0,0,0.0,0.0,1.0
1634892475.0,0,0,4.616005028806032,0.0,1.0
1634892475.46875,0,0,11.46944303753261,0.0,1.0
1634892475.9375,0,0,0.0,0.0,1.0
1634892476.40625,0,0,0.0,0.0,1.0
1634892476.875,0,0,29.09600022330245,0.0,1.0
1634892477.34375,0,0,0.0,0.0,1.0
1634892477.8125,0,0,0.0,0.0,1.0
1634892478.28125,0,0,65.81531801524493,0.0,1.0
1634892478.75,0,0,-18.753365139271732,0.0,1.0
1634892479.21875,0,0,29.974850456905973,0.0,1.0
1634892479.6875,0,0,0.0,0.0,1.0
1634892480.15625,0,0,52.74613818684299,0.0,1.0
1634892480.625,0,0,0.0,0.0,1.0
1634892481.09375,0,0,26.697349121463976,0.0,1.0
1634892481.5625,0,0,0.0,0.0,1.0
1634892482.03125,0,0,73.63359542953701,0.0,1.0
1634892482.5,0,0,0.0,0.0,1.0
1634892482.96875,0,0,13.14872751248599,0.0,1.0
1634892483.4375,0,0,5.248068095810216,0.0,1.0
1634892483.90625,0,0,54.01906981554967,0.0,1.0
1634892484.375,0,0,0.0,0.0,1.0
1634892484.84375,0,0,9.418571314127895,0.0,1.0
1634892485.3125,0,0,8.024919506845707,0.0,1.0
1634892485.78125,0,0,152.79037356327265,0.0,1.0
1634892486.25,0,0,0.0,0.0,1.0
1634892486.71875,0,0,7.954526871061953,0.0,1.0
1634892487.1875,0,0,43.85760668038735,0.0,1.0
1634892487.65625,0,0,2.7484335086901597,0.0,1.0
1634892488.125,0,0,-4.146447274051206,0.0,1.0
1634892488.59375,0,0,15.38071428177061,0.0,1.0
1634892489.0625,0,0,67.26368033759145,0.0,1.0
1634892489.53125,0,0,1.1604053685145632,0.0,1.0
1634892490.0,0,0,19.900321363575955,0.0,1.0
1634892490.46875,0,0,22.405935503661436,0.0,1.0
1634892490.9375,0,0,13.053017220831734,0.0,1.0
1634892491.40625,0,0,9.369030136769243,0.0,1.0
1634892491.875,0,0,6.846920755157887,0.0,1.0
1634892492.34375,0,0,59.5472343481089,0.0,1.0
1634892492.8125,0,0,0.0,0.0,1.0
1634892493.28125,0,0,20.954662010477296,0.0,1.0
1634892493.75,0,0,0.0,0.0,1.0
1634892494.21875,0,0,0.0,0.0,1.0
1634892494.6875,0,0,53.52569474500008,0.0,1.0
1634892495.15625,0,0,-2.045689087558342,0.0,1.0
1634892495.625,0,0,42.569662174542216,0.0,1.0
1634892496.09375,0,0,0.0,0.0,1.0
1634892496.5625,0,0,10.368394387529607,0.0,1.0
1634892497.03125,0,0,24.753590074962318,0.0,1.0
1634892497.5,0,0,0.8537899548600012,0.0,1.0
1634892497.96875,0,0,13.825852467938498,0.0,1.0
1634892498.4375,0,0,0.0,0.0,1.0
1634892498.90625,0,0,20.451844405812672,0.0,1.0
1634892499.375,0,0,15.4309340720181,0.0,1.0
1634892499.84375,0,0,21.351275796610594,0.0,1.0
1634892500.3125,0,0,15.188796799244116,0.0,1.0
1634892500.78125,0,0,0.0,0.0,1.0
1634892501.25,0,0,43.36175660158383,0.0,1.0
1634892501.71875,0,0,0.0,0.0,1.0
1634892502.1875,0,0,58.5202296493175,0.0,1.0
1634892502.65625,0,0,58.276595823732876,0.0,1.0
1634892503.125,0,0,0.0,0.0,1.0
1634892503.59375,0,0,37.792980506345735,0.0,1.0
1634892504.0625,0,0,0.0,0.0,1.0
1634892504.53125,0,0,11.293539472048398,0.0,1.0
1634892505.0,0,0,0.0,0.0,1.0
1634892505.46875,0,0,64.819506957076,0.0,1.0
1634892505.9375,0,0,21.623748492585815,0.0,1.0
1634892506.40625,0,0,0.0,0.0,1.0
1634892506.875,0,0,37.844589235907925,0.0,1.0
1634892507.34375,0,0,40.3477890255091,0.0,1.0
1634892507.8125,0,0,-24.455058250796398,0.0,1.0
1634892508.28125,0,0,22.881305379970872,0.0,1.0
1634892508.75,0,0,0.0,0.0,1.0
1634892509.21875,0,0,67.54595255025919,0.0,1.0
1634892509.6875,0,0,0.0,0.0,1.0
1634892510.15625,0,0,4.415907284523384,0.0,1.0
1634892510.625,0,0,20.7318226292064,0.0,1.0
1634892511.09375,0,0,0.0,0.0,1.0
1634892511.5625,0,0,0.0,0.0,1.0
1634892512.03125,0,0,24.78852280124451,0.0,1.0
1634892512.5,0,0,0.0,0.0,1.0
1634892512.96875,0,0,53.9727330340376,0.0,1.0
1634892513.4375,0,0,0.0,0.0,1.0
1634892513.90625,0,0,0.7138682175635522,0.0,1.0
1634892514.375,0,0,9.47283992291682,0.0,1.0
1634892514.84375,0,0,0.0,0.0,1.0
1634892515.3125,0,0,66.37641130170822,0.0,1.0
1634892515.78125,0,0,0.0,0.0,1.0
1634892516.25,0,0,25.339018245048283,0.0,1.0
1634892516.71875,0,0,3.93283490348975,0.0,1.0
1634892517.1875,0,0,0.0,0.0,1.0
1634892517.65625,0,0,0.0,0.0,1.0
1634892518.125,0,0,37.80702152644261,0.0,1.0
1634892518.59375,0,0,0.0,0.0,1.0
1634892519.0625,0,0,61.39360854765164,0.0,1.0
1634892519.53125,0,0,-1.5875112859078073,0.0,1.0
1634892520.0,0,0,0.0,0.0,1.0
1634892520.46875,0,0,18.12138142020757,0.0,1.0
1634892520.9375,0,0,0.0,0.0,1.0
1634892521.40625,0,0,51.957932160400794,0.0,1.0
1634892521.875,0,0,0.0,0.0,1.0
1634892522.34375,0,0,0.0,0.0,1.0
1634892522.8125,0,0,0.0,0.0,1.0
1634892523.28125,0,0,56.026665829440525,0.0,1.0
1634892523.75,0,0,-14.892271195817504,0.0,1.0
1634892524.21875,0,0,11.910691770253402,0.0,1.0
1634892524.6875,0,0,0.0,0.0,1.0
1634892525.15625,0,0,41.169382252808546,0.0,1.0
1634892525.625,0,0,0.0,0.0,1.0
1634892526.09375,0,0,7.730604267769089,0.0,1.0
1634892526.5625,0,0,0.0,0.0,1.0
1634892527.03125,0,0,0.0,0.0,1.0
1634892527.5,0,0,0.0,0.0,1.0
1634892527.96875,0,0,12.064730667109092,0.0,1.0
1634892528.4375,0,0,0.0,0.0,1.0
1634892528.90625,0,0,3.440615639189799,0.0,1.0
1634892529.375,0,0,38.36493344536978,0.0,1.0
1634892529.84375,0,0,-5.708206347988607,0.0,1.0
1634892530.3125,0,0,11.168031805442286,0.0,1.0
1634892530.78125,0,0,0.0,0.0,1.0
1634892531.25,0,0,75.50368823159467,0.0,1.0
1634892531.71875,0,0,0.0,0.0,1.0
1634892532.1875,0,0,13.331388352395074,0.0,1.0
1634892532.65625,0,0,10.134504060709135,0.0,1.0
1634892533.125,0,0,44.184363292623495,0.0,1.0
1634892533.59375,0,0,-21.039933409429988,0.0,1.0
1634892534.0625,0,0,13.875908949513844,0.0,1.0
1634892534.53125,0,0,0.0,0.0,1.0
1634892535.0,0,0,11.568414069965238,0.0,1.0
1634892535.46875,0,0,33.656166113501065,0.0,1.0
1634892535.9375,0,0,-12.943624329828873,0.0,1.0
1634892536.40625,0,0,10.520353940094353,0.0,1.0
1634892536.875,0,0,0.0,0.0,1.0
1634892537.34375,0,0,47.96700777930739,0.0,1.0
1634892537.8125,0,0,3.058340511338203,0.0,1.0
1634892538.28125,0,0,10.935585594295615,0.0,1.0
1634892538.75,0,0,0.0,0.0,1.0
1634892539.21875,0,0,80.88264815616458,0.0,1.0
1634892539.6875,0,0,0.0,0.0,1.0
1634892540.15625,0,0,7.935909073126648,0.0,1.0
1634892540.625,0,0,12.896671673111923,0.0,1.0
1634892541.09375,0,0,52.679940419824916,0.0,1.0
1634892541.5625,0,0,-22.52268965354525,0.0,1.0
1634892542.03125,0,0,19.590164818277625,0.0,1.0
1634892542.5,0,0,0.0,0.0,1.0
1634892542.96875,0,0,39.070019283246104,0.0,1.0
1634892543.4375,0,0,38.79572480544181,0.0,1.0
1634892543.90625,0,0,-16.168481207708005,0.0,1.0
1634892544.375,0,0,23.60681330952214,0.0,1.0
1634892544.84375,0,0,0.0,0.0,1.0
1634892545.3125,0,0,65.6201994594245,0.0,1.0
1634892545.78125,0,0,0.0,0.0,1.0
1634892546.25,0,0,15.98144395898253,0.0,1.0
1634892546.71875,0,0,0.0,0.0,1.0
1634892547.1875,0,0,9.809063597134143,0.0,1.0
1634892547.65625,0,0,0.0,0.0,1.0
1634892548.125,0,0,9.318134412240616,0.0,1.0
1634892548.59375,0,0,9.874157080690637,0.0,1.0
1634892549.0625,0,0,9.306369092156283,0.0,1.0
1634892549.53125,0,0,7.425485727769163,0.0,1.0
1634892550.0,0,0,8.971748592037915,0.0,1.0
1634892550.46875,0,0,15.016582480574305,0.0,1.0
1634892550.9375,0,0,6.267976150023528,0.0,1.0
1634892551.40625,0,0,8.256728692305837,0.0,1.0
1634892551.875,0,0,12.77508258509829,0.0,1.0
1634892552.34375,0,0,7.059673587027607,0.0,1.0
1634892552.8125,0,0,5.394726833372538,0.0,1.0
1634892553.28125,0,0,8.899823982876322,0.0,1.0
1634892553.75,0,0,6.745551330341943,0.0,1.0
1634892554.21875,0,0,5.061649692096032,0.0,1.0
1634892554.6875,0,0,4.317652681131491,0.0,1.0
1634892555.15625,0,0,13.402926322239221,0.0,1.0
1634892555.625,0,0,8.63473844877272,0.0,1.0
1634892556.09375,0,0,8.794882055402388,0.0,1.0
1634892556.5625,0,0,5.810923760829891,0.0,1.0
1634892557.03125,0,0,8.826584101348438,0.0,1.0
1634892557.5,0,0,12.098323928619804,0.0,1.0
1634892557.96875,0,0,4.000504327346477,0.0,1.0
1634892558.4375,0,0,0.0,0.0,1.0
1634892558.90625,0,0,9.011790530793345,0.0,1.0
1634892559.375,0,0,14.598791843777096,0.0,1.0
1634892559.84375,0,0,0.0,0.0,1.0
1634892560.3125,0,0,4.826632952453635,0.0,1.0
1634892560.78125,0,0,60.25028992767344,0.0,1.0
1634892561.25,0,0,-21.41760717862938,0.0,1.0
1634892561.71875,0,0,10.193584526468937,0.0,1.0
1634892562.1875,0,0,0.0,0.0,1.0
1634892562.65625,0,0,33.41228012953729,0.0,1.0
1634892563.125,0,0,0.0,0.0,1.0
1634892563.59375,0,0,1.29264255865405,0.0,1.0
1634892564.0625,0,0,13.878238467359031,0.0,1.0
1634892564.53125,0,0,14.83600173717709,0.0,1.0
1634892565.0,0,0,-5.986180152841746,0.0,1.0
1634892565.46875,0,0,10.003968171355314,0.0,1.0
1634892565.9375,0,0,10.425885615559798,0.0,1.0
1634892566.40625,0,0,31.195279129755544,0.0,1.0
1634892566.875,0,0,0.0,0.0,1.0
1634892567.34375,0,0,8.06372851844242,0.0,1.0
1634892567.8125,0,0,6.763970496500711,0.0,1.0
1634892568.28125,0,0,19.27294548278482,0.0,1.0
1634892568.75,0,0,18.666704854169524,0.0,1.0
1634892569.21875,0,0,4.136932629731428,0.0,1.0
1634892569.6875,0,0,4.664884782985412,0.0,1.0
1634892570.15625,0,0,54.0954365834884,0.0,1.0
1634892570.625,0,0,0.0,0.0,1.0
1634892571.09375,0,0,11.973538988720053,0.0,1.0
1634892571.5625,0,0,6.34857720651513,0.0,1.0
1634892572.03125,0,0,7.524587887680106,0.0,1.0
1634892572.5,0,0,46.03014707027433,0.0,1.0
1634892572.96875,0,0,-13.310565749291799,0.0,1.0
1634892573.4375,0,0,11.818255959643347,0.0,1.0
1634892573.90625,0,0,0.0,0.0,1.0
1634892574.375,0,0,47.433474142786096,0.0,1.0
1634892574.84375,0,0,0.0,0.0,1.0
1634892575.3125,0,0,0.0,0.0,1.0
1634892575.78125,0,0,0.0,0.0,1.0
1634892576.25,0,0,71.16826526887859,0.0,1.0
1634892576.71875,0,0,-30.870816184067607,0.0,1.0
1634892577.1875,0,0,34.553503368404975,0.0,1.0
1634892577.65625,0,0,0.0,0.0,1.0
1634892578.125,0,0,45.24398719346938,0.0,1.0
1634892578.59375,0,0,5.807457902321567,0.0,1.0
1634892579.0625,0,0,0.0,0.0,1.0
1634892579.53125,0,0,10.477594382439573,0.0,1.0
1634892580.0,0,0,52.50519581353131,0.0,1.0
1634892580.46875,0,0,-31.56047187939653,0.0,1.0
1634892580.9375,0,0,15.051805280021807,0.0,1.0
1634892581.40625,0,0,0.0,0.0,1.0
1634892581.875,0,0,41.97801129470414,0.0,1.0
1634892582.34375,0,0,0.0,0.0,1.0
1634892582.8125,0,0,4.975957001570175,0.0,1.0
1634892583.28125,0,0,7.067204239070399,0.0,1.0
1634892583.75,0,0,0.0,0.0,1.0
1634892584.21875,0,0,82.65028163923999,0.0,1.0
1634892584.6875,0,0,0.0,0.0,1.0
1634892585.15625,0,0,15.770945588788978,0.0,1.0
1634892585.625,0,0,0.0,0.0,1.0
1634892586.09375,0,0,36.63384150266881,0.0,1.0
1634892586.5625,0,0,-11.34365516237476,0.0,1.0
1634892587.03125,0,0,41.952689936198624,0.0,1.0
1634892587.5,0,0,0.0,0.0,1.0
1634892587.96875,0,0,0.0,0.0,1.0
1634892588.4375,0,0,45.00395064312926,0.0,1.0
1634892588.90625,0,0,-7.84266511138847,0.0,1.0
1634892589.375,0,0,10.105357206857164,0.0,1.0
1634892589.84375,0,0,16.64235323751215,0.0,1.0
1634892590.3125,0,0,70.5033028321811,0.0,1.0
1634892590.78125,0,0,-36.27680424389936,0.0,1.0
1634892591.25,0,0,20.0454060794808,0.0,1.0
1634892591.71875,0,0,0.0,0.0,1.0
1634892592.1875,0,0,49.12174540468232,0.0,1.0
1634892592.65625,0,0,-5.650488707176555,0.0,1.0
1634892593.125,0,0,16.734999347525314,0.0,1.0
1634892593.59375,0,0,0.0,0.0,1.0
1634892594.0625,0,0,62.20117580985284,0.0,1.0
1634892594.53125,0,0,0.0,0.0,1.0
1634892595.0,0,0,21.64178702076631,0.0,1.0
1634892595.46875,0,0,3.28769777335404,0.0,1.0
1634892595.9375,0,0,3.881417248738543,0.0,1.0
1634892596.40625,0,0,63.04499730928084,0.0,1.0
1634892596.875,0,0,11.980814030330992,0.0,1.0
1634892597.34375,0,0,12.646173266650893,0.0,1.0
1634892597.8125,0,0,0.0,0.0,1.0
1634892598.28125,0,0,56.63989727778907,0.0,1.0
1634892598.75,0,0,9.258435798821168,0.0,1.0
1634892599.21875,0,0,8.713127549937546,0.0,1.0
1634892599.6875,0,0,6.294304211972456,0.0,1.0
1634892600.15625,0,0,67.69057544517766,0.0,1.0
1634892600.625,0,0,0.0,0.0,1.0
1634892601.09375,0,0,18.598380794450396,0.0,1.0
1634892601.5625,0,0,6.070138296181128,0.0,1.0
1634892602.03125,0,0,86.38576925890828,0.0,1.0
1634892602.5,0,0,-28.063287005869203,0.0,1.0
1634892602.96875,0,0,24.152890646902726,0.0,1.0
1634892603.4375,0,0,0.0,0.0,1.0
1634892603.90625,0,0,68.1136313219801,0.0,1.0
1634892604.375,0,0,0.0,0.0,1.0
1634892604.84375,0,0,1.3971907450860181,0.0,1.0
1634892605.3125,0,0,32.02330284265746,0.0,1.0
1634892605.78125,0,0,-3.520416723897211,0.0,1.0
1634892606.25,0,0,-0.7804007302484622,0.0,1.0
1634892606.71875,0,0,57.41906573983104,0.0,1.0
1634892607.1875,0,0,-14.034506509425823,0.0,1.0
1634892607.65625,0,0,16.650393824546093,0.0,1.0
1634892608.125,0,0,0.0,0.0,1.0
1634892608.59375,0,0,12.287670403283313,0.0,1.0
1634892609.0625,0,0,12.809568746570251,0.0,1.0
1634892609.53125,0,0,0.0,0.0,1.0
1634892610.0,0,0,59.78781967033429,0.0,1.0
1634892610.46875,0,0,-12.906447631114052,0.0,1.0
1634892610.9375,0,0,14.467005199928417,0.0,1.0
1634892611.40625,0,0,0.0,0.0,1.0
1634892611.875,0,0,11.519294259175702,0.0,1.0
1634892612.34375,0,0,0.0,0.0,1.0
1634892612.8125,0,0,33.37928871716379,0.0,1.0
1634892613.28125,0,0,0.0,0.0,1.0
1634892613.75,0,0,19.532656721081313,0.0,1.0
1634892614.21875,0,0,75.04055935155297,0.0,1.0
1634892614.6875,0,0,0.0,0.0,1.0
1634892615.15625,0,0,0.0,0.0,1.0
1634892615.625,0,0,33.47886593293098,0.0,1.0
1634892616.09375,0,0,-3.8104807964853538,0.0,1.0
1634892616.5625,0,0,-4.250626877270349,0.0,1.0
1634892617.03125,0,0,13.57891815746937,0.0,1.0
1634892617.5,0,0,0.6069381056729077,0.0,1.0
1634892617.96875,0,0,2.6941630636112954,0.0,1.0
1634892618.4375,0,0,63.770763472908385,0.0,1.0
1634892618.90625,0,0,-12.175676867946455,0.0,1.0
1634892619.375,0,0,3.1174877072325167,0.0,1.0
1634892619.84375,0,0,63.90534884801677,0.0,1.0
1634892620.3125,0,0,0.0,0.0,1.0
1634892620.78125,0,0,46.65151160908648,0.0,1.0
1634892621.25,0,0,0.0,0.0,1.0
1634892621.71875,0,0,30.890481371324054,0.0,1.0
1634892622.1875,0,0,0.0,0.0,1.0
1634892622.65625,0,0,15.537802553762072,0.0,1.0
1634892623.125,0,0,28.846766321507626,0.0,1.0
1634892623.59375,0,0,0.0,0.0,1.0
1634892624.0625,0,0,13.680683712765148,0.0,1.0
1634892624.53125,0,0,8.774186126828798,0.0,1.0
1634892625.0,0,0,0.0,0.0,1.0
1634892625.46875,0,0,-10.224631386170907,0.0,1.0
1634892625.9375,0,0,0.0,0.0,1.0
1634892626.40625,0,0,18.66093404996265,0.0,1.0
1634892626.875,0,0,1.5269915225426591,0.0,1.0
1634892627.34375,0,0,57.04715615053864,0.0,1.0
1634892627.8125,0,0,-17.5596724808522,0.0,1.0
1634892628.28125,0,0,0.0,0.0,1.0
1634892628.75,0,0,0.0,0.0,1.0
1634892629.21875,0,0,3.8353102597849094,0.0,1.0
1634892629.6875,0,0,0.0,0.0,1.0
1634892630.15625,0,0,68.67474204760543,0.0,1.0
1634892630.625,0,0,0.0,0.0,1.0
1634892631.09375,0,0,11.330779984472452,0.0,1.0
1634892631.5625,0,0,59.09345739211466,0.0,1.0
1634892632.03125,0,0,0.0,0.0,1.0
1634892632.5,0,0,8.482425317768502,0.0,1.0
1634892632.96875,0,0,9.330887200164003,0.0,1.0
1634892633.4375,0,0,0.0,0.0,1.0
1634892633.90625,0,0,55.164377905659975,0.0,1.0
1634892634.375,0,0,9.254852154192056,0.0,1.0
1634892634.84375,0,0,0.0,0.0,1.0
1634892635.3125,0,0,19.060996271689437,0.0,1.0
1634892635.78125,0,0,30.701963604251496,0.0,1.0
1634892636.25,0,0,-15.02008160432991,0.0,1.0
1634892636.71875,0,0,9.665953471220103,0.0,1.0
1634892637.1875,0,0,57.25858423470848,0.0,1.0
1634892637.65625,0,0,0.0,0.0,1.0
1634892638.125,0,0,10.258712806002187,0.0,1.0
1634892638.59375,0,0,7.2856373008468,0.0,1.0
1634892639.0625,0,0,9.23972297160938,0.0,1.0
1634892639.53125,0,0,68.84511005077006,0.0,1.0
1634892640.0,0,0,0.0,0.0,1.0
1634892640.46875,0,0,24.353979278528605,0.0,1.0
1634892640.9375,0,0,3.608783084641913,0.0,1.0
1634892641.40625,0,0,0.0,0.0,1.0
1634892641.875,0,0,63.68448429398657,0.0,1.0
1634892642.34375,0,0,0.0,0.0,1.0
1634892642.8125,0,0,0.0,0.0,1.0
1634892643.28125,0,0,6.734266577984304,0.0,1.0
1634892643.75,0,0,59.89056512479587,0.0,1.0
1634892644.21875,0,0,0.0,0.0,1.0
1634892644.6875,0,0,16.26371094147418,0.0,1.0
1634892645.15625,0,0,6.559107990628214,0.0,1.0
1634892645.625,0,0,4.505594681993016,0.0,1.0
1634892646.09375,0,0,78.82962554898923,0.0,1.0
1634892646.5625,0,0,0.0,0.0,1.0
1634892647.03125,0,0,8.979861674049902,0.0,1.0
1634892647.5,0,0,0.0,0.0,1.0
1634892647.96875,0,0,0.0,0.0,1.0
1634892648.4375,0,0,7.857342034814122,0.0,1.0
1634892648.90625,0,0,6.767129703693553,0.0,1.0
1634892649.375,0,0,8.81315944608663,0.0,1.0
1634892649.84375,0,0,29.82067029901152,0.0,1.0
1634892650.3125,0,0,12.133393964946817,0.0,1.0
1634892650.78125,0,0,9.96646536225724,0.0,1.0
1634892651.25,0,0,2.6061465004660125,0.0,1.0
1634892651.71875,0,0,56.58466088993551,0.0,1.0
1634892652.1875,0,0,0.0,0.0,1.0
1634892652.65625,0,0,12.172739104718438,0.0,1.0
1634892653.125,0,0,0.0,0.0,1.0
1634892653.59375,0,0,74.432570368609,0.0,1.0
1634892654.0625,0,0,0.0,0.0,1.0
1634892654.53125,0,0,11.496020106005943,0.0,1.0
1634892655.0,0,0,9.97153167408458,0.0,1.0
1634892655.46875,0,0,0.0,0.0,1.0
1634892655.9375,0,0,62.74590370534814,0.0,1.0
1634892656.40625,0,0,12.23932082550162,0.0,1.0
1634892656.875,0,0,8.142953595465295,0.0,1.0
1634892657.34375,0,0,9.979020361277898,0.0,1.0
1634892657.8125,0,0,53.97876949525148,0.0,1.0
1634892658.28125,0,0,0.0,0.0,1.0
1634892658.75,0,0,14.522850749260027,0.0,1.0
1634892659.21875,0,0,10.901891031026034,0.0,1.0
1634892659.6875,0,0,0.0,0.0,1.0
1634892660.15625,0,0,63.86857196034113,0.0,1.0
1634892660.625,0,0,12.719850856870535,0.0,1.0
1634892661.09375,0,0,12.110042779475506,0.0,1.0
1634892661.5625,0,0,9.612288841236966,0.0,1.0
1634892662.03125,0,0,54.222139551360016,0.0,1.0
1634892662.5,0,0,0.0,0.0,1.0
1634892662.96875,0,0,14.852848562774838,0.0,1.0
1634892663.4375,0,0,15.09172275850007,0.0,1.0
1634892663.90625,0,0,42.70025464322825,0.0,1.0
1634892664.375,0,0,9.536640991758455,0.0,1.0
1634892664.84375,0,0,16.426882410590178,0.0,1.0
1634892665.3125,0,0,0.0,0.0,1.0
1634892665.78125,0,0,6.792434950253605,0.0,1.0
1634892666.25,0,0,8.329669478477832,0.0,1.0
1634892666.71875,0,0,8.677689045302815,0.0,1.0
1634892667.1875,0,0,10.04075722002068,0.0,1.0
1634892667.65625,0,0,12.257593265050325,0.0,1.0
1634892668.125,0,0,9.273429294378843,0.0,1.0
1634892668.59375,0,0,4.382149709738087,0.0,1.0
1634892669.0625,0,0,21.63826704182883,0.0,1.0
1634892669.53125,0,0,8.105029767588448,0.0,1.0
1634892670.0,0,0,4.165878009567874,0.0,1.0
1634892670.46875,0,0,14.298697754524,0.0,1.0
1634892670.9375,0,0,11.061378546974455,0.0,1.0
1634892671.40625,0,0,11.0321665969566,0.0,1.0
1634892671.875,0,0,1.6237534076255142,0.0,1.0
1634892672.34375,0,0,53.56808898124546,0.0,1.0
1634892672.8125,0,0,0.0,0.0,1.0
1634892673.28125,0,0,15.934108991650245,0.0,1.0
1634892673.75,0,0,11.585318419260402,0.0,1.0
1634892674.21875,0,0,22.040234654751707,0.0,1.0
1634892674.6875,0,0,0.0,0.0,1.0
1634892675.15625,0,0,28.167397587181345,0.0,1.0
1634892675.625,0,0,10.287115417544198,0.0,1.0
1634892676.09375,0,0,0.0,0.0,1.0
1634892676.5625,0,0,11.706630861306445,0.0,1.0
1634892677.03125,0,0,11.546870883618691,0.0,1.0
1634892677.5,0,0,8.91641024648914,0.0,1.0
1634892677.96875,0,0,9.852493789163805,0.0,1.0
1634892678.4375,0,0,0.0,0.0,1.0
1634892678.90625,0,0,78.70225583735042,0.0,1.0
1634892679.375,0,0,0.0,0.0,1.0
1634892679.84375,0,0,0.0,0.0,1.0
1634892680.3125,0,0,7.713273270042862,0.0,1.0
1634892680.78125,0,0,13.964839269756826,0.0,1.0
1634892681.25,0,0,19.869906178166396,0.0,1.0
1634892681.71875,0,0,17.490651184542497,0.0,1.0
1634892682.1875,0,0,0.0,0.0,1.0
1634892682.65625,0,0,23.18915706411238,0.0,1.0
1634892683.125,0,0,28.683804074761525,0.0,1.0
1634892683.59375,0,0,7.338119549204183,0.0,1.0
1634892684.0625,0,0,8.762003285515563,0.0,1.0
1634892684.53125,0,0,47.75211567476887,0.0,1.0
1634892685.0,0,0,0.0,0.0,1.0
1634892685.46875,0,0,12.798254283582265,0.0,1.0
1634892685.9375,0,0,5.6282428980844985,0.0,1.0
1634892686.40625,0,0,0.0,0.0,1.0
1634892686.875,0,0,57.00835054769642,0.0,1.0
1634892687.34375,0,0,-19.22575971305679,0.0,1.0
1634892687.8125,0,0,11.529316075142384,0.0,1.0
1634892688.28125,0,0,33.12485461097537,0.0,1.0
1634892688.75,0,0,27.03116585806957,0.0,1.0
1634892689.21875,0,0,7.707899962200496,0.0,1.0
1634892689.6875,0,0,7.9312554095360595,0.0,1.0
1634892690.15625,0,0,7.639319870997532,0.0,1.0
1634892690.625,0,0,0.0,0.0,1.0
1634892691.09375,0,0,0.0,0.0,1.0
1634892691.5625,0,0,15.526547292076714,0.0,1.0
1634892692.03125,0,0,0.0,0.0,1.0
1634892692.5,0,0,20.724512029140005,0.0,1.0
1634892692.96875,0,0,-2.544464663209217,0.0,1.0
1634892693.4375,0,0,27.925322730317745,0.0,1.0
1634892693.90625,0,0,1.421349087239251,0.0,1.0
1634892694.375,0,0,15.89067602123694,0.0,1.0
1634892694.84375,0,0,0.0,0.0,1.0
1634892695.3125,0,0,21.020166378664626,0.0,1.0
1634892695.78125,0,0,0.0,0.0,1.0
1634892696.25,0,0,0.662185321294987,0.0,1.0
1634892696.71875,0,0,17.930151482455443,0.0,1.0
1634892697.1875,0,0,36.482267603333966,0.0,1.0
1634892697.65625,0,0,0.0,0.0,1.0
1634892698.125,0,0,7.141997016359231,0.0,1.0
1634892698.59375,0,0,0.0,0.0,1.0
1634892699.0625,0,0,43.26881441278354,0.0,1.0
1634892699.53125,0,0,11.103678871702648,0.0,1.0
1634892700.0,0,0,0.0,0.0,1.0
1634892700.46875,0,0,31.63644008735705,0.0,1.0
1634892700.9375,0,0,0.0,0.0,1.0
1634892701.40625,0,0,8.102796822584986,0.0,1.0
1634892701.875,0,0,22.96548605717175,0.0,1.0
1634892702.34375,0,0,-6.409163367024966,0.0,1.0
1634892702.8125,0,0,11.222358395942635,0.0,1.0
1634892703.28125,0,0,65.42214971772465,0.0,1.0
1634892703.75,0,0,0.0,0.0,1.0
1634892704.21875,0,0,14.124104038338789,0.0,1.0
1634892704.6875,0,0,33.13176168826089,0.0,1.0
1634892705.15625,0,0,32.4541806145987,0.0,1.0
1634892705.625,0,0,5.304304424287187,0.0,1.0
1634892706.09375,0,0,19.482195208922953,0.0,1.0
1634892706.5625,0,0,-1.695743224514428,0.0,1.0
1634892707.03125,0,0,0.390315608046962,0.0,1.0
1634892707.5,0,0,83.88664722334964,0.0,1.0
1634892707.96875,0,0,0.0,0.0,1.0
1634892708.4375,0,0,7.165176491398348,0.0,1.0
1634892708.90625,0,0,90.89668431260151,0.0,1.0
1634892709.375,0,0,0.0,0.0,1.0
1634892709.84375,0,0,21.815292338925524,0.0,1.0
1634892710.3125,0,0,0.0,0.0,1.0
1634892710.78125,0,0,39.563654938823234,0.0,1.0
1634892711.25,0,0,0.0,0.0,1.0
1634892711.71875,0,0,13.44903106039471,0.0,1.0
1634892712.1875,0,0,14.34696640398603,0.0,1.0
1634892712.65625,0,0,45.33209865646644,0.0,1.0
1634892713.125,0,0,0.0,0.0,1.0
1634892713.59375,0,0,1.756560827536668,0.0,1.0
1634892714.0625,0,0,6.038659635541525,0.0,1.0
1634892714.53125,0,0,40.138897862807106,0.0,1.0
1634892715.0,0,0,0.0,0.0,1.0
1634892715.46875,0,0,14.523351467798781,0.0,1.0
1634892715.9375,0,0,0.0,0.0,1.0
1634892716.40625,0,0,-0.16154759796924575,0.0,1.0
1634892716.875,0,0,60.75840435182707,0.0,1.0
1634892717.34375,0,0,-20.628755867348488,0.0,1.0
1634892717.8125,0,0,9.451637689983702,0.0,1.0
1634892718.28125,0,0,0.0,0.0,1.0
1634892718.75,0,0,59.646705451912844,0.0,1.0
1634892719.21875,0,0,0.0,0.0,1.0
1634892719.6875,0,0,24.20133578708841,0.0,1.0
1634892720.15625,0,0,15.23081674788928,0.0,1.0
1634892720.625,0,0,-1.9212608857035594,0.0,1.0
1634892721.09375,0,0,0.0,0.0,1.0
1634892721.5625,0,0,59.48532883195553,0.0,1.0
1634892722.03125,0,0,21.58168073031362,0.0,1.0
1634892722.5,0,0,0.0,0.0,1.0
1634892722.96875,0,0,0.0,0.0,1.0
1634892723.4375,0,0,0.0,0.0,1.0
1634892723.90625,0,0,13.26428455656294,0.0,1.0
1634892724.375,0,0,11.881882493330776,0.0,1.0
1634892724.84375,0,0,11.854810916242222,0.0,1.0
1634892725.3125,0,0,13.947204320829572,0.0,1.0
1634892725.78125,0,0,0.0,0.0,1.0
1634892726.25,0,0,10.903735727959697,0.0,1.0
1634892726.71875,0,0,9.500738834514399,0.0,1.0
1634892727.1875,0,0,0.0,0.0,1.0
1634892727.65625,0,0,8.842102681356986,0.0,1.0
1634892728.125,0,0,8.960433027546676,0.0,1.0
1634892728.59375,0,0,3.058716499428487,0.0,1.0
1634892729.0625,0,0,4.496179053688941,0.0,1.0
1634892729.53125,0,0,11.736256584361131,0.0,1.0
1634892730.0,0,0,7.714433169983201,0.0,1.0
1634892730.46875,0,0,8.156218359617712,0.0,1.0
1634892730.9375,0,0,9.282426760240844,0.0,1.0
1634892731.40625,0,0,9.155025559949452,0.0,1.0
1634892731.875,0,0,8.658636740121139,0.0,1.0
1634892732.34375,0,0,2.8222259189605086,0.0,1.0
1634892732.8125,0,0,-3.6914139140345608,0.0,1.0
1634892733.28125,0,0,0.0,0.0,1.0
1634892733.75,0,0,0.0,0.0,1.0
1634892734.21875,0,0,-0.06770014254357637,0.0,1.0
1634892734.6875,0,0,13.530967235132806,0.0,1.0
1634892735.15625,0,0,13.128070805225843,0.0,1.0
1634892735.625,0,0,12.489968257905533,0.0,1.0
1634892736.09375,0,0,0.0,0.0,1.0
1634892736.5625,0,0,0.0,0.0,1.0
1634892737.03125,0,0,98.0757124947072,0.0,1.0
1634892737.5,0,0,-18.857251810632224,0.0,1.0
1634892737.96875,0,0,0.0,0.0,1.0
1634892738.4375,0,0,79.01692083831074,0.0,1.0
1634892738.90625,0,0,0.0,0.0,1.0
1634892739.375,0,0,97.41983104245939,0.0,1.0
1634892739.84375,0,0,0.0,0.0,1.0
1634892740.3125,0,0,8.64015091300969,0.0,1.0
1634892740.78125,0,0,18.554479701947525,0.0,1.0
1634892741.25,0,0,0.0,0.0,1.0
1634892741.71875,0,0,34.91186370152517,0.0,1.0
1634892742.1875,0,0,0.0,0.0,1.0
1634892742.65625,0,0,17.36947916404302,0.0,1.0
1634892743.125,0,0,0.0,0.0,1.0
1634892743.59375,0,0,15.734516741064008,0.0,1.0
1634892744.0625,0,0,5.474590101809804,0.0,1.0
1634892744.53125,0,0,0.0,0.0,1.0
1634892745.0,0,0,13.546101748957845,0.0,1.0
1634892745.46875,0,0,43.77890315935608,0.0,1.0
1634892745.9375,0,0,0.0,0.0,1.0
1634892746.40625,0,0,14.094430654644619,0.0,1.0
1634892746.875,0,0,0.0,0.0,1.0
1634892747.34375,0,0,35.179164833720044,0.0,1.0
1634892747.8125,0,0,0.0,0.0,1.0
1634892748.28125,0,0,3.1636597006228446,0.0,1.0
1634892748.75,0,0,13.896459920564658,0.0,1.0
1634892749.21875,0,0,0.0,0.0,1.0
1634892749.6875,0,0,66.3192842362283,0.0,1.0
1634892750.15625,0,0,0.0,0.0,1.0
1634892750.625,0,0,4.0482453203469735,0.0,1.0
1634892751.09375,0,0,31.25653302105659,0.0,1.0
1634892751.5625,0,0,0.0,0.0,1.0
1634892752.03125,0,0,4.006142625588738,0.0,1.0
1634892752.5,0,0,8.066515967457665,0.0,1.0
1634892752.96875,0,0,8.79886745583069,0.0,1.0
1634892753.4375,0,0,90.06092847705835,0.0,1.0
1634892753.90625,0,0,0.0,0.0,1.0
1634892754.375,0,0,9.643416685058519,0.0,1.0
1634892754.84375,0,0,0.0,0.0,1.0
1634892755.3125,0,0,44.80479118766576,0.0,1.0
1634892755.78125,0,0,0.0,0.0,1.0
1634892756.25,0,0,-11.197395759013988,0.0,1.0
1634892756.71875,0,0,13.393519652284413,0.0,1.0
1634892757.1875,0,0,0.0,0.0,1.0
1634892757.65625,0,0,79.11785799264192,0.0,1.0
1634892758.125,0,0,0.0,0.0,1.0
1634892758.59375,0,0,0.0,0.0,1.0
1634892759.0625,0,0,0.0,0.0,1.0
1634892759.53125,0,0,18.440058240513707,0.0,1.0
1634892760.0,0,0,-15.70055724408024,0.0,1.0
1634892760.46875,0,0,11.673318550686513,0.0,1.0
1634892760.9375,0,0,0.0,0.0,1.0
1634892761.40625,0,0,42.678965904752346,0.0,1.0
1634892761.875,0,0,0.0,0.0,1.0
1634892762.34375,0,0,12.895344385221865,0.0,1.0
1634892762.8125,0,0,9.035091410228109,0.0,1.0
1634892763.28125,0,0,37.61861273649048,0.0,1.0
1634892763.75,0,0,0.0,0.0,1.0
1634892764.21875,0,0,19.46668619503509,0.0,1.0
1634892764.6875,0,0,0.0,0.0,1.0
1634892765.15625,0,0,8.782621335471184,0.0,1.0
1634892765.625,0,0,50.15199594157527,0.0,1.0
1634892766.09375,0,0,-37.45506389349476,0.0,1.0
1634892766.5625,0,0,29.64803083309719,0.0,1.0
1634892767.03125,0,0,0.0,0.0,1.0
1634892767.5,0,0,37.909246814715516,0.0,1.0
1634892767.96875,0,0,0.0,0.0,1.0
1634892768.4375,0,0,10.247314190367481,0.0,1.0
1634892768.90625,0,0,8.701525027745221,0.0,1.0
1634892769.375,0,0,39.866152513383945,0.0,1.0
1634892769.84375,0,0,-13.748406200940758,0.0,1.0
1634892770.3125,0,0,0.0,0.0,1.0
1634892770.78125,0,0,0.0,0.0,1.0
1634892771.25,0,0,0.4103062007839297,0.0,1.0
1634892771.71875,0,0,56.24534412694275,0.0,1.0
1634892772.1875,0,0,0.0,0.0,1.0
1634892772.65625,0,0,0.0,0.0,1.0
1634892773.125,0,0,0.0,0.0,1.0
1634892773.59375,0,0,31.21082161422435,0.0,1.0
1634892774.0625,0,0,0.0,0.0,1.0
1634892774.53125,0,0,11.878920470466309,0.0,1.0
1634892775.0,0,0,0.0,0.0,1.0
1634892775.46875,0,0,16.827347686469068,0.0,1.0
1634892775.9375,0,0,0.0,0.0,1.0
1634892776.40625,0,0,1.9524376014470215,0.0,1.0
1634892776.875,0,0,10.370712238323904,0.0,1.0
1634892777.34375,0,0,0.0,0.0,1.0
1634892777.8125,0,0,44.69782771786008,0.0,1.0
1634892778.28125,0,0,12.496844713239755,0.0,1.0
1634892778.75,0,0,0.0,0.0,1.0
1634892779.21875,0,0,0.0,0.0,1.0
1634892779.6875,0,0,0.0,0.0,1.0
1634892780.15625,0,0,-2.464771639838589,0.0,1.0
1634892780.625,0,0,14.163050422121286,0.0,1.0
1634892781.09375,0,0,0.0,0.0,1.0
1634892781.5625,0,0,84.75194961438945,0.0,1.0
1634892782.03125,0,0,0.0,0.0,1.0
1634892782.5,0,0,13.277639023808057,0.0,1.0
1634892782.96875,0,0,14.511130643403876,0.0,1.0
1634892783.4375,0,0,0.0,0.0,1.0
1634892783.90625,0,0,12.886261932624771,0.0,1.0
1634892784.375,0,0,12.549024875249229,0.0,1.0
1634892784.84375,0,0,0.0,0.0,1.0
1634892785.3125,0,0,13.873451055166392,0.0,1.0
1634892785.78125,0,0,6.416940645515341,0.0,1.0
1634892786.25,0,0,8.30201518121535,0.0,1.0
1634892786.71875,0,0,10.793610435843084,0.0,1.0
1634892787.1875,0,0,10.024111398239043,0.0,1.0
1634892787.65625,0,0,9.423640969901687,0.0,1.0
1634892788.125,0,0,9.222023834172273,0.0,1.0
1634892788.59375,0,0,9.275295439160404,0.0,1.0
1634892789.0625,0,0,18.362267372088297,0.0,1.0
1634892789.53125,0,0,0.0,0.0,1.0
1634892790.0,0,0,11.601030465168574,0.0,1.0
1634892790.46875,0,0,0.0,0.0,1.0
1634892790.9375,0,0,8.508649594064137,0.0,1.0
1634892791.40625,0,0,70.93443578247204,0.0,1.0
1634892791.875,0,0,17.416339006556402,0.0,1.0
1634892792.34375,0,0,17.824675353737046,0.0,1.0
1634892792.8125,0,0,12.460923288378718,0.0,1.0
1634892793.28125,0,0,7.088882453283416,0.0,1.0
1634892793.75,0,0,11.274297367673642,0.0,1.0
1634892794.21875,0,0,0.0,0.0,1.0
1634892794.6875,0,0,11.010109710771006,0.0,1.0
1634892795.15625,0,0,5.270194730835275,0.0,1.0
1634892795.625,0,0,6.18588634842037,0.0,1.0
1634892796.09375,0,0,19.872944715109085,0.0,1.0
1634892796.5625,0,0,0.0,0.0,1.0
1634892797.03125,0,0,63.285392685322506,0.0,1.0
1634892797.5,0,0,0.0,0.0,1.0
1634892797.96875,0,0,57.445512653179414,0.0,1.0
1634892798.4375,0,0,2.8121252608780756,0.0,1.0
1634892798.90625,0,0,2.4499684344201746,0.0,1.0
1634892799.375,0,0,3.854970291758969,0.0,1.0
1634892799.84375,0,0,22.049131430222737,0.0,1.0
1634892800.3125,0,0,-9.344039931026693,0.0,1.0
1634892800.78125,0,0,27.346061849685444,0.0,1.0
1634892801.25,0,0,0.0,0.0,1.0
1634892801.71875,0,0,6.662606647732544,0.0,1.0
1634892802.1875,0,0,0.0,0.0,1.0
1634892802.65625,0,0,39.20954819575888,0.0,1.0
1634892803.125,0,0,0.0,0.0,1.0
1634892803.59375,0,0,11.199214006912579,0.0,1.0
1634892804.0625,0,0,7.942921513974739,0.0,1.0
1634892804.53125,0,0,0.0,0.0,1.0
1634892805.0,0,0,44.81685030253773,0.0,1.0
1634892805.46875,0,0,16.750887458004467,0.0,1.0
1634892805.9375,0,0,0.0,0.0,1.0
1634892806.40625,0,0,7.653364948116387,0.0,1.0
1634892806.875,0,0,39.60945462354553,0.0,1.0
1634892807.34375,0,0,-15.095613413941956,0.0,1.0
1634892807.8125,0,0,15.537965870584147,0.0,1.0
1634892808.28125,0,0,0.0,0.0,1.0
1634892808.75,0,0,0.0,0.0,1.0
1634892809.21875,0,0,0.0,0.0,1.0
1634892809.6875,0,0,5.050270294719724,0.0,1.0
1634892810.15625,0,0,10.252915877973807,0.0,1.0
1634892810.625,0,0,0.0,0.0,1.0
1634892811.09375,0,0,39.72973787006061,0.0,1.0
1634892811.5625,0,0,0.0,0.0,1.0
1634892812.03125,0,0,9.03455481058099,0.0,1.0
1634892812.5,0,0,10.58556933930307,0.0,1.0
1634892812.96875,0,0,44.196062866705894,0.0,1.0
1634892813.4375,0,0,-26.563795102871563,0.0,1.0
1634892813.90625,0,0,11.341198370220544,0.0,1.0
1634892814.375,0,0,0.0,0.0,1.0
1634892814.84375,0,0,46.82194986609687,0.0,1.0
1634892815.3125,0,0,0.0,0.0,1.0
1634892815.78125,0,0,12.431140779330205,0.0,1.0
1634892816.25,0,0,7.872880663059071,0.0,1.0
1634892816.71875,0,0,0.0,0.0,1.0
1634892817.1875,0,0,0.0,0.0,1.0
1634892817.65625,0,0,14.022858583335864,0.0,1.0
1634892818.125,0,0,7.535372730134093,0.0,1.0
1634892818.59375,0,0,8.682454675469854,0.0,1.0
1634892819.0625,0,0,44.873356020683765,0.0,1.0
1634892819.53125,0,0,0.0,0.0,1.0
1634892820.0,0,0,12.00935727431656,0.0,1.0
1634892820.46875,0,0,0.0,0.0,1.0
1634892820.9375,0,0,22.667282816770363,0.0,1.0
1634892821.40625,0,0,-2.261176623926353,0.0,1.0
1634892821.875,0,0,15.802940818860051,0.0,1.0
1634892822.34375,0,0,0.0,0.0,1.0
1634892822.8125,0,0,40.05116074491433,0.0,1.0
1634892823.28125,0,0,0.0,0.0,1.0
1634892823.75,0,0,5.034858067681426,0.0,1.0
1634892824.21875,0,0,16.234506210982023,0.0,1.0
1634892824.6875,0,0,0.0,0.0,1.0
1634892825.15625,0,0,59.28748669664117,0.0,1.0
1634892825.625,0,0,2.832816310681347,0.0,1.0
1634892826.09375,0,0,4.3751315415366205,0.0,1.0
1634892826.5625,0,0,5.417951630053769,0.0,1.0
1634892827.03125,0,0,59.109613899391896,0.0,1.0
1634892827.5,0,0,0.0,0.0,1.0
1634892827.96875,0,0,19.569039371123,0.0,1.0
1634892828.4375,0,0,9.870236960281877,0.0,1.0
1634892828.90625,0,0,0.0,0.0,1.0
1634892829.375,0,0,98.48065054390725,0.0,1.0
1634892829.84375,0,0,7.787517309717033,0.0,1.0
1634892830.3125,0,0,0.0,0.0,1.0
1634892830.78125,0,0,17.802795291702736,0.0,1.0
1634892831.25,0,0,46.60552193163584,0.0,1.0
1634892831.71875,0,0,-16.378448552448372,0.0,1.0
1634892832.1875,0,0,14.196978366853878,0.0,1.0
1634892832.65625,0,0,0.0,0.0,1.0
1634892833.125,0,0,45.81412050838942,0.0,1.0
1634892833.59375,0,0,18.3279888496354,0.0,1.0
1634892834.0625,0,0,13.496329682697693,0.0,1.0
1634892834.53125,0,0,0.0,0.0,1.0
1634892835.0,0,0,8.945049733726687,0.0,1.0
1634892835.46875,0,0,0.0,0.0,1.0
1634892835.9375,0,0,-9.92764404340401,0.0,1.0
1634892836.40625,0,0,20.222640510631166,0.0,1.0
1634892836.875,0,0,0.0,0.0,1.0
1634892837.34375,0,0,41.09115863430911,0.0,1.0
1634892837.8125,0,0,-4.55323717465146,0.0,1.0
1634892838.28125,0,0,6.3712870925180605,0.0,1.0
1634892838.75,0,0,0.0,0.0,1.0
1634892839.21875,0,0,83.29603462384485,0.0,1.0
1634892839.6875,0,0,0.0,0.0,1.0
1634892840.15625,0,0,0.0,0.0,1.0
1634892840.625,0,0,0.0,0.0,1.0
1634892841.09375,0,0,33.0447242417585,0.0,1.0
1634892841.5625,0,0,-15.977519489242288,0.0,1.0
1634892842.03125,0,0,20.55112720261836,0.0,1.0
1634892842.5,0,0,11.588462703636202,0.0,1.0
1634892842.96875,0,0,0.0,0.0,1.0
1634892843.4375,0,0,15.982209303637127,0.0,1.0
1634892843.90625,0,0,15.753896855146298,0.0,1.0
1634892844.375,0,0,0.0,0.0,1.0
1634892844.84375,0,0,-1.8192361641949994,0.0,1.0
1634892845.3125,0,0,0.0,0.0,1.0
1634892845.78125,0,0,91.0467513481513,0.0,1.0
1634892846.25,0,0,-5.294361283326165,0.0,1.0
1634892846.71875,0,0,18.323684319325082,0.0,1.0
1634892847.1875,0,0,21.595388263301786,0.0,1.0
1634892847.65625,0,0,0.0,0.0,1.0
1634892848.125,0,0,8.429746791741843,0.0,1.0
1634892848.59375,0,0,6.919550048075191,0.0,1.0
1634892849.0625,0,0,0.981681662633475,0.0,1.0
1634892849.53125,0,0,62.57553774332971,0.0,1.0
1634892850.0,0,0,0.0,0.0,1.0
1634892850.46875,0,0,13.531868647316868,0.0,1.0
1634892850.9375,0,0,0.0,0.0,1.0
1634892851.40625,0,0,58.18781271455858,0.0,1.0
1634892851.875,0,0,0.0,0.0,1.0
1634892852.34375,0,0,9.170678550318137,0.0,1.0
1634892852.8125,0,0,9.62912473502667,0.0,1.0
1634892853.28125,0,0,18.10514413399743,0.0,1.0
1634892853.75,0,0,3.8990391716459136,0.0,1.0
1634892854.21875,0,0,3.1665030209324323,0.0,1.0
1634892854.6875,0,0,12.862216131696723,0.0,1.0
1634892855.15625,0,0,9.371665853921433,0.0,1.0
1634892855.625,0,0,8.89380524157656,0.0,1.0
1634892856.09375,0,0,13.138667885248507,0.0,1.0
1634892856.5625,0,0,0.0,0.0,1.0
1634892857.03125,0,0,15.787482271957225,0.0,1.0
1634892857.5,0,0,-1.2666937528671316,0.0,1.0
1634892857.96875,0,0,8.592622232272792,0.0,1.0
1634892858.4375,0,0,58.33861442884951,0.0,1.0
1634892858.90625,0,0,4.966471401613104,0.0,1.0
1634892859.375,0,0,0.0,0.0,1.0
1634892859.84375,0,0,0.0,0.0,1.0
1634892860.3125,0,0,0.0,0.0,1.0
1634892860.78125,0,0,8.877189106915653,0.0,1.0
1634892861.25,0,0,8.628855058361617,0.0,1.0
1634892861.71875,0,0,0.0,0.0,1.0
1634892862.1875,0,0,63.342628582750066,0.0,1.0
1634892862.65625,0,0,-3.0003614143550728,0.0,1.0
1634892863.125,0,0,2.4621792510127523,0.0,1.0
1634892863.59375,0,0,45.07649529770083,0.0,1.0
1634892864.0625,0,0,0.0,0.0,1.0
1634892864.53125,0,0,-9.17860943416915,0.0,1.0
1634892865.0,0,0,21.563810144453935,0.0,1.0
1634892865.46875,0,0,0.0,0.0,1.0
1634892865.9375,0,0,74.22708643754713,0.0,1.0
1634892866.40625,0,0,10.033161144277406,0.0,1.0
1634892866.875,0,0,0.0,0.0,1.0
1634892867.34375,0,0,12.656079706322995,0.0,1.0
1634892867.8125,0,0,68.48570362088937,0.0,1.0
1634892868.28125,0,0,-24.611549471072202,0.0,1.0
1634892868.75,0,0,16.475398054146375,0.0,1.0
1634892869.21875,0,0,0.0,0.0,1.0
1634892869.6875,0,0,91.11486525728289,0.0,1.0
1634892870.15625,0,0,0.0,0.0,1.0
1634892870.625,0,0,0.0,0.0,1.0
1634892871.09375,0,0,11.01878713148586,0.0,1.0
1634892871.5625,0,0,94.76419761198294,0.0,1.0
1634892872.03125,0,0,0.0,0.0,1.0
1634892872.5,0,0,17.80184240248263,0.0,1.0
1634892872.96875,0,0,0.0,0.0,1.0
1634892873.4375,0,0,55.24310256467799,0.0,1.0
1634892873.90625,0,0,0.0,0.0,1.0
1634892874.375,0,0,0.0,0.0,1.0
1634892874.84375,0,0,6.325503463639088,0.0,1.0
1634892875.3125,0,0,73.69321871392458,0.0,1.0
1634892875.78125,0,0,-39.63961918754872,0.0,1.0
1634892876.25,0,0,18.906534873609125,0.0,1.0
1634892876.71875,0,0,0.0,0.0,1.0
1634892877.1875,0,0,14.227769748290731,0.0,1.0
1634892877.65625,0,0,45.01605261608973,0.0,1.0
1634892878.125,0,0,-13.36022384524398,0.0,1.0
1634892878.59375,0,0,22.22503194099817,0.0,1.0
1634892879.0625,0,0,0.0,0.0,1.0
1634892879.53125,0,0,76.96258789636063,0.0,1.0
1634892880.0,0,0,0.0,0.0,1.0
1634892880.46875,0,0,17.074897455629714,0.0,1.0
1634892880.9375,0,0,12.309923403375004,0.0,1.0
1634892881.40625,0,0,53.62612261563581,0.0,1.0
1634892881.875,0,0,-26.10141095772635,0.0,1.0
1634892882.34375,0,0,-24.17482479039481,0.0,1.0
1634892882.8125,0,0,30.265047829869637,0.0,1.0
1634892883.28125,0,0,0.0,0.0,1.0
1634892883.75,0,0,46.785986298800786,0.0,1.0
1634892884.21875,0,0,2.6448357115137506,0.0,1.0
1634892884.6875,0,0,12.300254248025864,0.0,1.0
1634892885.15625,0,0,13.836407673010426,0.0,1.0
1634892885.625,0,0,57.77128334392701,0.0,1.0
1634892886.09375,0,0,0.0,0.0,1.0
1634892886.5625,0,0,16.50753619878573,0.0,1.0
1634892887.03125,0,0,0.0,0.0,1.0
1634892887.5,0,0,49.72758390191578,0.0,1.0
1634892887.96875,0,0,10.878949996620621,0.0,1.0
1634892888.4375,0,0,5.338069336582681,0.0,1.0
1634892888.90625,0,0,5.941938319176578,0.0,1.0
1634892889.375,0,0,53.47999735950357,0.0,1.0
1634892889.84375,0,0,-16.614230079074282,0.0,1.0
1634892890.3125,0,0,12.372417366182713,0.0,1.0
1634892890.78125,0,0,0.0,0.0,1.0
1634892891.25,0,0,48.51941384572735,0.0,1.0
1634892891.71875,0,0,0.0,0.0,1.0
1634892892.1875,0,0,0.0,0.0,1.0
1634892892.65625,0,0,10.526965625196022,0.0,1.0
1634892893.125,0,0,65.83416055005364,0.0,1.0
1634892893.59375,0,0,-34.79761007110677,0.0,1.0
1634892894.0625,0,0,13.014920885334352,0.0,1.0
1634892894.53125,0,0,0.0,0.0,1.0
1634892895.0,0,0,35.02827590694776,0.0,1.0
1634892895.46875,0,0,-6.728402839477429,0.0,1.0
1634892895.9375,0,0,13.985850039462285,0.0,1.0
1634892896.40625,0,0,0.0,0.0,1.0
1634892896.875,0,0,0.0,0.0,1.0
1634892897.34375,0,0,71.97972866717632,0.0,1.0
1634892897.8125,0,0,-1.1106673611843267,0.0,1.0
1634892898.28125,0,0,0.0,0.0,1.0
1634892898.75,0,0,21.790095185172234,0.0,1.0
1634892899.21875,0,0,53.441756327887774,0.0,1.0
1634892899.6875,0,0,0.0,0.0,1.0
1634892900.15625,0,0,30.059194196631577,0.0,1.0
1634892900.625,0,0,15.923013496467153,0.0,1.0
1634892901.09375,0,0,0.0,0.0,1.0
1634892901.5625,0,0,46.283509522431714,0.0,1.0
1634892902.03125,0,0,77.04060032053494,0.0,1.0
1634892902.5,0,0,-34.929181974432154,0.0,1.0
1634892902.96875,0,0,11.761183626975669,0.0,1.0
1634892903.4375,0,0,19.604089242332105,0.0,1.0
1634892903.90625,0,0,18.957195980172354,0.0,1.0
1634892904.375,0,0,0.0,0.0,1.0
1634892904.84375,0,0,18.596981727425977,0.0,1.0
1634892905.3125,0,0,6.3101102222224466,0.0,1.0
1634892905.78125,0,0,2.1643138575390424,0.0,1.0
1634892906.25,0,0,0.0,0.0,1.0
1634892906.71875,0,0,39.41340423393958,0.0,1.0
1634892907.1875,0,0,0.0,0.0,1.0
1634892907.65625,0,0,28.86044075850307,0.0,1.0
1634892908.125,0,0,0.0,0.0,1.0
1634892908.59375,0,0,5.128871820067015,0.0,1.0
1634892909.0625,0,0,0.0,0.0,1.0
1634892909.53125,0,0,11.869210472294897,0.0,1.0
1634892910.0,0,0,0.0,0.0,1.0
1634892910.46875,0,0,24.947760780375646,0.0,1.0
1634892910.9375,0,0,19.413978819180937,0.0,1.0
1634892911.40625,0,0,0.6909240427460951,0.0,1.0
1634892911.875,0,0,17.6093304379878,0.0,1.0
1634892912.34375,0,0,19.376184714963703,0.0,1.0
1634892912.8125,0,0,8.791456243792947,0.0,1.0
1634892913.28125,0,0,0.0,0.0,1.0
1634892913.75,0,0,20.429679712645193,0.0,1.0
1634892914.21875,0,0,22.537365887229743,0.0,1.0
1634892914.6875,0,0,-4.244784248500808,0.0,1.0
1634892915.15625,0,0,9.72975235949414,0.0,2.0
1634892915.625,0,0,24.732207609790965,0.0,2.0
1634892916.09375,0,0,41.2865542045604,0.0,2.0
1634892916.5625,0,0,-26.482062553426204,0.0,2.0
1634892917.03125,0,0,-14.357042977230163,0.0,2.0
1634892917.5,0,0,0.0,0.0,2.0
1634892917.96875,0,0,0.0,0.0,2.0
1634892918.4375,0,0,21.983278923997073,0.0,2.0
1634892918.90625,0,0,24.108677379912482,0.0,2.0
1634892919.375,0,0,0.0,0.0,2.0
1634892919.84375,0,0,0.0,0.0,2.0
1634892920.3125,0,0,47.46572272061255,0.0,2.0
1634892920.78125,0,0,0.0,0.0,2.0
1634892921.25,0,0,4.280088172775921,0.0,2.0
1634892921.71875,0,0,12.433194662257286,0.0,2.0
1634892922.1875,0,0,0.0,0.0,2.0
1634892922.65625,0,0,12.32697162146343,0.0,2.0
1634892923.125,0,0,-2.0736825262167047,0.0,2.0
1634892923.59375,0,0,9.988272232028873,0.0,2.0
1634892924.0625,0,0,0.0,0.0,2.0
1634892924.53125,0,0,9.240612649822534,0.0,2.0
1634892925.0,0,0,19.391235030276544,0.0,2.0
1634892925.46875,0,0,3.3204130175354543,0.0,2.0
1634892925.9375,0,0,0.0,0.0,2.0
1634892926.40625,0,0,68.26988269159382,0.0,2.0
1634892926.875,0,0,0.0,0.0,2.0
1634892927.34375,0,0,4.769128307423203,0.0,2.0
1634892927.8125,0,0,12.229909752780117,0.0,2.0
1634892928.28125,0,0,0.0,0.0,2.0
1634892928.75,0,0,5.143490705695713,0.0,2.0
1634892929.21875,0,0,7.288493804434562,0.0,2.0
1634892929.6875,0,0,8.137231979999637,0.0,2.0
1634892930.15625,0,0,9.522208363717146,0.0,2.0
1634892930.625,0,0,0.0,0.0,2.0
1634892931.09375,0,0,13.243571904908654,0.0,2.0
1634892931.5625,0,0,12.759513986139872,0.0,2.0
1634892932.03125,0,0,0.0,0.0,2.0
1634892932.5,0,0,18.975924641708538,0.0,2.0
1634892932.96875,0,0,7.551403646197102,0.0,2.0
1634892933.4375,0,0,4.445431129423209,0.0,2.0
1634892933.90625,0,0,15.59940370720269,0.0,2.0
1634892934.375,0,0,22.266827032417115,0.0,2.0
1634892934.84375,0,0,19.904242629775275,0.0,2.0
1634892935.3125,0,0,16.06265756160708,0.0,2.0
1634892935.78125,0,0,0.0,0.0,2.0
1634892936.25,0,0,17.49019059734137,0.0,2.0
1634892936.71875,0,0,0.0,0.0,2.0
1634892937.1875,0,0,16.01148228432659,0.0,2.0
1634892937.65625,0,0,15.841076625152034,0.0,2.0
1634892938.125,0,0,13.422493562225986,0.0,2.0
1634892938.59375,0,0,14.954425867714717,0.0,2.0
1634892939.0625,0,0,14.721821436188607,0.0,2.0
1634892939.53125,0,0,12.441594110686383,0.0,2.0
1634892940.0,0,0,14.40353951167473,0.0,2.0
1634892940.46875,0,0,0.0,0.0,2.0
1634892940.9375,0,0,14.549937325387855,0.0,2.0
1634892941.40625,0,0,13.9802979983536,0.0,2.0
1634892941.875,0,0,12.726431088223364,0.0,2.0
1634892942.34375,0,0,12.53269754857402,0.0,2.0
1634892942.8125,0,0,11.987278450119566,0.0,2.0
1634892943.28125,0,0,10.496772973065246,0.0,2.0
1634892943.75,0,0,12.686298358844802,0.0,2.0
1634892944.21875,0,0,11.53770156664583,0.0,2.0
1634892944.6875,0,0,12.526880790522284,0.0,2.0
1634892945.15625,0,0,7.265817001135549,0.0,2.0
1634892945.625,0,0,12.935511815419428,0.0,2.0
1634892946.09375,0,0,1.4143269735173993,0.0,2.0
1634892946.5625,0,0,0.0,0.0,2.0
1634892947.03125,0,0,64.11801170636905,0.0,2.0
1634892947.5,0,0,1.465072916040392,0.0,2.0
1634892947.96875,0,0,15.674051454287515,0.0,2.0
1634892948.4375,0,0,4.479305893107276,0.0,2.0
1634892948.90625,0,0,11.840536975173025,0.0,2.0
1634892949.375,0,0,0.0,0.0,2.0
1634892949.84375,0,0,10.539880290665657,0.0,2.0
1634892950.3125,0,0,13.167476719920343,0.0,2.0
1634892950.78125,0,0,9.965937145006928,0.0,2.0
1634892951.25,0,0,0.0,0.0,2.0
1634892951.71875,0,0,19.440960330442948,0.0,2.0
1634892952.1875,0,0,16.45083149640103,0.0,2.0
1634892952.65625,0,0,13.215850303566464,0.0,2.0
1634892953.125,0,0,12.503604625514457,0.0,2.0
1634892953.59375,0,0,11.17912399677604,0.0,2.0
1634892954.0625,0,0,10.641077009056223,0.0,2.0
1634892954.53125,0,0,9.748561342294677,0.0,2.0
1634892955.0,0,0,14.884464688183481,0.0,2.0
1634892955.46875,0,0,0.0,0.0,2.0
1634892955.9375,0,0,14.447526383340842,0.0,2.0
1634892956.40625,0,0,0.0,0.0,2.0
1634892956.875,0,0,11.843660689219337,0.0,2.0
1634892957.34375,0,0,0.0,0.0,2.0
1634892957.8125,0,0,10.888628326992668,0.0,2.0
1634892958.28125,0,0,0.0,0.0,2.0
1634892958.75,0,0,10.288590827115309,0.0,2.0
1634892959.21875,0,0,9.376561276669674,0.0,2.0
1634892959.6875,0,0,8.920663876521786,0.0,2.0
1634892960.15625,0,0,12.153196517006046,0.0,2.0
1634892960.625,0,0,0.0,0.0,2.0
1634892961.09375,0,0,13.78029227908333,0.0,2.0
1634892961.5625,0,0,0.0,0.0,2.0
1634892962.03125,0,0,12.95221946858945,0.0,2.0
1634892962.5,0,0,0.0,0.0,2.0
1634892962.96875,0,0,12.378503002250172,0.0,2.0
1634892963.4375,0,0,11.153768086824355,0.0,2.0
1634892963.90625,0,0,0.0,0.0,2.0
1634892964.375,0,0,10.333753963906851,0.0,2.0
1634892964.84375,0,0,0.0,0.0,2.0
1634892965.3125,0,0,10.916141844166235,0.0,2.0
1634892965.78125,0,0,0.0,0.0,2.0
1634892966.25,0,0,12.120368467935753,0.0,2.0
1634892966.71875,0,0,9.527940114732955,0.0,2.0
1634892967.1875,0,0,13.231370216203974,0.0,2.0
1634892967.65625,0,0,13.415041588164794,0.0,2.0
1634892968.125,0,0,0.0,0.0,2.0
1634892968.59375,0,0,12.054170699357169,0.0,2.0
1634892969.0625,0,0,9.565799294299337,0.0,2.0
1634892969.53125,0,0,13.019705303795059,0.0,2.0
1634892970.0,0,0,10.069436533724021,0.0,2.0
1634892970.46875,0,0,0.0,0.0,2.0
1634892970.9375,0,0,11.40698658658897,0.0,2.0
1634892971.40625,0,0,0.0,0.0,2.0
1634892971.875,0,0,14.938551598893378,0.0,2.0
1634892972.34375,0,0,0.0,0.0,2.0
1634892972.8125,0,0,0.0,0.0,2.0
1634892973.28125,0,0,11.981716885979134,0.0,2.0
1634892973.75,0,0,0.0,0.0,2.0
1634892974.21875,0,0,11.083675157247711,0.0,2.0
1634892974.6875,0,0,9.414771559259604,0.0,2.0
1634892975.15625,0,0,11.336374137328736,0.0,2.0
1634892975.625,0,0,7.127016741132166,0.0,2.0
1634892976.09375,0,0,0.0,0.0,2.0
1634892976.5625,0,0,80.21213755393516,0.0,2.0
1634892977.03125,0,0,0.0,0.0,2.0
1634892977.5,0,0,11.404850244960981,0.0,2.0
1634892977.96875,0,0,16.97495030971696,0.0,2.0
1634892978.4375,0,0,0.0,0.0,2.0
1634892978.90625,0,0,10.14437815833685,0.0,2.0
1634892979.375,0,0,10.624080985460582,0.0,2.0
1634892979.84375,0,0,13.378524189815112,0.0,2.0
1634892980.3125,0,0,11.639074094160271,0.0,2.0
1634892980.78125,0,0,9.548985907043535,0.0,2.0
1634892981.25,0,0,11.141345316673437,0.0,2.0
1634892981.71875,0,0,11.406375616066924,0.0,2.0
1634892982.1875,0,0,0.0,0.0,2.0
1634892982.65625,0,0,11.471804841307417,0.0,2.0
1634892983.125,0,0,7.753575790783122,0.0,2.0
1634892983.59375,0,0,11.53108249951038,0.0,2.0
1634892984.0625,0,0,10.034760239616102,0.0,2.0
1634892984.53125,0,0,0.0,0.0,2.0
1634892985.0,0,0,9.113833195277918,0.0,2.0
1634892985.46875,0,0,6.240103687534309,0.0,2.0
1634892985.9375,0,0,0.0,0.0,2.0
1634892986.40625,0,0,9.905611692384996,0.0,2.0
1634892986.875,0,0,0.0,0.0,2.0
1634892987.34375,0,0,11.189897768287842,0.0,2.0
1634892987.8125,0,0,6.404545376916333,0.0,2.0
1634892988.28125,0,0,0.0,0.0,2.0
1634892988.75,0,0,10.257152806089572,0.0,2.0
1634892989.21875,0,0,6.958659019896468,0.0,2.0
1634892989.6875,0,0,11.65543852534316,0.0,2.0
1634892990.15625,0,0,9.834055404769432,0.0,2.0
1634892990.625,0,0,0.0,0.0,2.0
1634892991.09375,0,0,11.047232554373434,0.0,2.0
1634892991.5625,0,0,0.0,0.0,2.0
1634892992.03125,0,0,10.971874599867736,0.0,2.0
1634892992.5,0,0,11.469326985321324,0.0,2.0
1634892992.96875,0,0,0.0,0.0,2.0
1634892993.4375,0,0,11.885636272630899,0.0,2.0
1634892993.90625,0,0,6.336750557432538,0.0,2.0
1634892994.375,0,0,9.351597206553565,0.0,2.0
1634892994.84375,0,0,8.92085671699308,0.0,2.0
1634892995.3125,0,0,0.0,0.0,2.0
1634892995.78125,0,0,11.172420770173488,0.0,2.0
1634892996.25,0,0,0.0,0.0,2.0
1634892996.71875,0,0,13.306837483593265,0.0,2.0
1634892997.1875,0,0,10.50412518099964,0.0,2.0
1634892997.65625,0,0,10.22257039371581,0.0,2.0
1634892998.125,0,0,0.0,0.0,2.0
1634892998.59375,0,0,13.66396969433639,0.0,2.0
1634892999.0625,0,0,0.0,0.0,2.0
1634892999.53125,0,0,14.813720926296345,0.0,2.0
1634893000.0,0,0,8.974245652214071,0.0,2.0
1634893000.46875,0,0,11.030238419456667,0.0,2.0
1634893000.9375,0,0,6.463937641250126,0.0,2.0
1634893001.40625,0,0,0.0,0.0,2.0
1634893001.875,0,0,41.29504111556543,0.0,2.0
1634893002.34375,0,0,7.88447651894302,0.0,2.0
1634893002.8125,0,0,30.345526548544502,0.0,2.0
1634893003.28125,0,0,2.369798909165821,0.0,2.0
1634893003.75,0,0,-2.39418820386237,0.0,2.0
1634893004.21875,0,0,9.044298332139082,0.0,2.0
1634893004.6875,0,0,0.0,0.0,2.0
1634893005.15625,0,0,12.393534575902313,0.0,2.0
1634893005.625,0,0,19.982545213890674,0.0,2.0
1634893006.09375,0,0,0.0,0.0,2.0
1634893006.5625,0,0,-6.016596735425409,0.0,2.0
1634893007.03125,0,0,46.999667095563964,0.0,2.0
1634893007.5,0,0,0.0,0.0,2.0
1634893007.96875,0,0,-5.9765333749308835,0.0,2.0
1634893008.4375,0,0,53.10409859272871,0.0,2.0
1634893008.90625,0,0,-17.931235092151724,0.0,2.0
1634893009.375,0,0,12.73515522324944,0.0,2.0
1634893009.84375,0,0,6.656537598795952,0.0,2.0
1634893010.3125,0,0,13.944993444563627,0.0,2.0
1634893010.78125,0,0,0.3951404769257581,0.0,2.0
1634893011.25,0,0,0.0,0.0,2.0
1634893011.71875,0,0,70.00852947333804,0.0,2.0
1634893012.1875,0,0,2.0250262633952625,0.0,2.0
1634893012.65625,0,0,61.16897172569114,0.0,2.0
1634893013.125,0,0,0.0,0.0,2.0
1634893013.59375,0,0,11.94018170938334,0.0,2.0
1634893014.0625,0,0,17.135357288639288,0.0,2.0
1634893014.53125,0,0,0.0,0.0,2.0
1634893015.0,0,0,21.081436119429334,0.0,2.0
1634893015.46875,0,0,3.963522118013655,0.0,2.0
1634893015.9375,0,0,40.09955034336021,0.0,2.0
1634893016.40625,0,0,0.0,0.0,2.0
1634893016.875,0,0,65.28693507442996,0.0,2.0
1634893017.34375,0,0,50.28423306340162,0.0,2.0
1634893017.8125,0,0,0.0,0.0,2.0
1634893018.28125,0,0,23.51308879625057,0.0,2.0
1634893018.75,0,0,0.0,0.0,2.0
1634893019.21875,0,0,9.65195421847506,0.0,2.0
1634893019.6875,0,0,0.0,0.0,2.0
1634893020.15625,0,0,19.795496715915515,0.0,2.0
1634893020.625,0,0,0.0,0.0,2.0
1634893021.09375,0,0,22.222488716821413,0.0,2.0
1634893021.5625,0,0,14.568303907644442,0.0,2.0
1634893022.03125,0,0,17.649582694760625,0.0,2.0
1634893022.5,0,0,14.171016777401388,0.0,2.0
1634893022.96875,0,0,0.0,0.0,2.0
1634893023.4375,0,0,15.276966555512049,0.0,2.0
1634893023.90625,0,0,0.0,0.0,2.0
1634893024.375,0,0,15.16746621618692,0.0,2.0
1634893024.84375,0,0,7.428828530957284,0.0,2.0
1634893025.3125,0,0,6.719680913832708,0.0,2.0
1634893025.78125,0,0,13.621050955208249,0.0,2.0
1634893026.25,0,0,0.0,0.0,2.0
1634893026.71875,0,0,11.431816831605891,0.0,2.0
1634893027.1875,0,0,9.856040969448257,0.0,2.0
1634893027.65625,0,0,5.1187762794009855,0.0,2.0
1634893028.125,0,0,0.0,0.0,2.0
1634893028.59375,0,0,6.563090579770001,0.0,2.0
1634893029.0625,0,0,10.91162512190045,0.0,2.0
1634893029.53125,0,0,16.145296924511776,0.0,2.0
1634893030.0,0,0,6.757119564571808,0.0,2.0
1634893030.46875,0,0,10.331208337017339,0.0,2.0
1634893030.9375,0,0,13.163405726407408,0.0,2.0
1634893031.40625,0,0,17.564733794581343,0.0,2.0
1634893031.875,0,0,0.0,0.0,2.0
1634893032.34375,0,0,15.42487126303911,0.0,2.0
1634893032.8125,0,0,16.944521354388083,0.0,2.0
1634893033.28125,0,0,18.015523101747057,0.0,2.0
1634893033.75,0,0,15.231919938809835,0.0,2.0
1634893034.21875,0,0,16.2498020944259,0.0,2.0
1634893034.6875,0,0,0.0,0.0,2.0
1634893035.15625,0,0,0.0,0.0,2.0
1634893035.625,0,0,16.544173218648552,0.0,2.0
1634893036.09375,0,0,0.0,0.0,2.0
1634893036.5625,0,0,16.81110456532929,0.0,2.0
1634893037.03125,0,0,0.0,0.0,2.0
1634893037.5,0,0,17.258282060680514,0.0,2.0
1634893037.96875,0,0,0.0,0.0,2.0
1634893038.4375,0,0,18.12396658159018,0.0,2.0
1634893038.90625,0,0,0.0,0.0,2.0
1634893039.375,0,0,18.912908160817864,0.0,2.0
1634893039.84375,0,0,0.0,0.0,2.0
1634893040.3125,0,0,18.339877871197167,0.0,2.0
1634893040.78125,0,0,17.361812197310588,0.0,2.0
1634893041.25,0,0,19.77450773274685,0.0,2.0
1634893041.71875,0,0,16.969151350740596,0.0,2.0
1634893042.1875,0,0,19.422032029678984,0.0,2.0
1634893042.65625,0,0,14.670004428520256,0.0,2.0
1634893043.125,0,0,16.54575380191978,0.0,2.0
1634893043.59375,0,0,15.299259599355672,0.0,2.0
1634893044.0625,0,0,16.928421532810486,0.0,2.0
1634893044.53125,0,0,12.794295542408253,0.0,2.0
1634893045.0,0,0,0.0,0.0,2.0
1634893045.46875,0,0,15.017037130941073,0.0,2.0
1634893045.9375,0,0,0.0,0.0,2.0
1634893046.40625,0,0,16.834516947363305,0.0,2.0
1634893046.875,0,0,0.0,0.0,2.0
1634893047.34375,0,0,18.520314441163087,0.0,2.0
1634893047.8125,0,0,13.511093325881788,0.0,2.0
1634893048.28125,0,0,15.588714108857266,0.0,2.0
1634893048.75,0,0,13.319528713457748,0.0,2.0
1634893049.21875,0,0,14.790554979794482,0.0,2.0
1634893049.6875,0,0,13.32960593889599,0.0,2.0
1634893050.15625,0,0,0.0,0.0,2.0
1634893050.625,0,0,17.961433979040702,0.0,2.0
1634893051.09375,0,0,0.0,0.0,2.0
1634893051.5625,0,0,11.042398572349814,0.0,2.0
1634893052.03125,0,0,0.0,0.0,2.0
1634893052.5,0,0,68.86389655448731,0.0,2.0
1634893052.96875,0,0,-15.948616565623057,0.0,2.0
1634893053.4375,0,0,8.418539319933384,0.0,2.0
1634893053.90625,0,0,19.153429497980643,0.0,2.0
1634893054.375,0,0,0.0,0.0,2.0
1634893054.84375,0,0,6.51947955667445,0.0,2.0
1634893055.3125,0,0,0.0,0.0,2.0
1634893055.78125,0,0,15.788239612765398,0.0,2.0
1634893056.25,0,0,-9.92844554374641,0.0,2.0
1634893056.71875,0,0,35.69674369848621,0.0,2.0
1634893057.1875,0,0,33.22137359679602,0.0,2.0
1634893057.65625,0,0,-14.44189292884158,0.0,2.0
1634893058.125,0,0,9.507266069312264,0.0,2.0
1634893058.59375,0,0,30.48210111879507,0.0,2.0
1634893059.0625,0,0,7.795052596048632,0.0,2.0
1634893059.53125,0,0,11.507165353045368,0.0,2.0
1634893060.0,0,0,18.052029476388405,0.0,2.0
1634893060.46875,0,0,0.0,0.0,2.0
1634893060.9375,0,0,14.026505295350903,0.0,2.0
1634893061.40625,0,0,0.0,0.0,2.0
1634893061.875,0,0,13.450435684664857,0.0,2.0
1634893062.34375,0,0,11.326860380225435,0.0,2.0
1634893062.8125,0,0,11.983085194752196,0.0,2.0
1634893063.28125,0,0,11.303749738639079,0.0,2.0
1634893063.75,0,0,0.0,0.0,2.0
1634893064.21875,0,0,13.072306636736867,0.0,2.0
1634893064.6875,0,0,9.760384477477718,0.0,2.0
1634893065.15625,0,0,8.839304147617083,0.0,2.0
1634893065.625,0,0,12.636459479496661,0.0,2.0
1634893066.09375,0,0,10.610907570960029,0.0,2.0
1634893066.5625,0,0,0.0,0.0,2.0
1634893067.03125,0,0,19.789229672191183,0.0,2.0
1634893067.5,0,0,0.0,0.0,2.0
1634893067.96875,0,0,8.734679577941904,0.0,2.0
1634893068.4375,0,0,5.960252488265342,0.0,2.0
1634893068.90625,0,0,10.55216471740681,0.0,2.0
1634893069.375,0,0,0.0,0.0,2.0
1634893069.84375,0,0,10.081644342615718,0.0,2.0
1634893070.3125,0,0,0.8789059524345847,0.0,2.0
1634893070.78125,0,0,3.3781805136210385,0.0,2.0
1634893071.25,0,0,5.368299278373552,0.0,2.0
1634893071.71875,0,0,0.0,0.0,2.0
1634893072.1875,0,0,7.609111563384526,0.0,2.0
1634893072.65625,0,0,12.233813599751736,0.0,2.0
1634893073.125,0,0,5.122326262630166,0.0,2.0
1634893073.59375,0,0,5.132146786671019,0.0,2.0
1634893074.0625,0,0,9.351606919715525,0.0,2.0
1634893074.53125,0,0,7.923058020245215,0.0,2.0
1634893075.0,0,0,0.0,0.0,2.0
1634893075.46875,0,0,8.919073983550396,0.0,2.0
1634893075.9375,0,0,7.537112491050433,0.0,2.0
1634893076.40625,0,0,7.002543792467721,0.0,2.0
1634893076.875,0,0,7.740688535906798,0.0,2.0
1634893077.34375,0,0,0.0,0.0,2.0
1634893077.8125,0,0,5.757452195007528,0.0,2.0
1634893078.28125,0,0,7.69396858077837,0.0,2.0
1634893078.75,0,0,0.0,0.0,2.0
1634893079.21875,0,0,7.855155529188344,0.0,2.0
1634893079.6875,0,0,7.455679887381717,0.0,2.0
1634893080.15625,0,0,6.960470620316022,0.0,2.0
1634893080.625,0,0,4.943514293272899,0.0,2.0
1634893081.09375,0,0,12.914279659171468,0.0,2.0
1634893081.5625,0,0,0.0,0.0,2.0
1634893082.03125,0,0,4.36762242737782,0.0,2.0
1634893082.5,0,0,8.058115315977757,0.0,2.0
1634893082.96875,0,0,0.0,0.0,2.0
1634893083.4375,0,0,10.366773015879696,0.0,2.0
1634893083.90625,0,0,6.44292706635911,0.0,2.0
1634893084.375,0,0,7.8037006224412,0.0,2.0
1634893084.84375,0,0,6.440727190925191,0.0,2.0
1634893085.3125,0,0,8.3923046175655,0.0,2.0
1634893085.78125,0,0,-3.7472713429641384,0.0,2.0
1634893086.25,0,0,0.0,0.0,2.0
1634893086.71875,0,0,50.00505469522536,0.0,2.0
1634893087.1875,0,0,0.0,0.0,2.0
1634893087.65625,0,0,0.0,0.0,2.0
1634893088.125,0,0,0.0,0.0,2.0
1634893088.59375,0,0,0.0,0.0,2.0
1634893089.0625,0,0,7.9919690161779435,0.0,2.0
1634893089.53125,0,0,0.0,0.0,2.0
1634893090.0,0,0,14.789982631211018,0.0,2.0
1634893090.46875,0,0,0.0,0.0,2.0
1634893090.9375,0,0,16.377358690038253,0.0,2.0
1634893091.40625,0,0,0.0,0.0,2.0
1634893091.875,0,0,14.71527321189274,0.0,2.0
1634893092.34375,0,0,0.0,0.0,2.0
1634893092.8125,0,0,10.739259150454163,0.0,2.0
1634893093.28125,0,0,0.0,0.0,2.0
1634893093.75,0,0,11.806275432080133,0.0,2.0
1634893094.21875,0,0,10.180428298811304,0.0,2.0
1634893094.6875,0,0,0.0,0.0,2.0
1634893095.15625,0,0,10.233809793804724,0.0,2.0
1634893095.625,0,0,0.0,0.0,2.0
1634893096.09375,0,0,10.92819932699778,0.0,2.0
1634893096.5625,0,0,0.0,0.0,2.0
1634893097.03125,0,0,10.823705637330809,0.0,2.0
1634893097.5,0,0,10.601610736386677,0.0,2.0
1634893097.96875,0,0,0.0,0.0,2.0
1634893098.4375,0,0,8.704639369266305,0.0,2.0
1634893098.90625,0,0,5.532392705024914,0.0,2.0
1634893099.375,0,0,6.538301976409832,0.0,2.0
1634893099.84375,0,0,8.898792600784416,0.0,2.0
1634893100.3125,0,0,0.0,0.0,2.0
1634893100.78125,0,0,7.472189464136522,0.0,2.0
1634893101.25,0,0,0.0,0.0,2.0
1634893101.71875,0,0,6.908546068615118,0.0,2.0
1634893102.1875,0,0,0.0,0.0,2.0
1634893102.65625,0,0,8.507713840506879,0.0,2.0
1634893103.125,0,0,8.159488279020465,0.0,2.0
1634893103.59375,0,0,0.0,0.0,2.0
1634893104.0625,0,0,8.116732468494742,0.0,2.0
1634893104.53125,0,0,0.0,0.0,2.0
1634893105.0,0,0,10.629131655688617,0.0,2.0
1634893105.46875,0,0,10.381413793254236,0.0,2.0
1634893105.9375,0,0,0.0,0.0,2.0
1634893106.40625,0,0,-4.221556005411205,0.0,2.0
1634893106.875,0,0,39.94502007994651,0.0,2.0
1634893107.34375,0,0,13.189395502057167,0.0,2.0
1634893107.8125,0,0,8.45468993053896,0.0,2.0
1634893108.28125,0,0,25.771599992736164,0.0,2.0
1634893108.75,0,0,0.0,0.0,2.0
1634893109.21875,0,0,9.679827259715543,0.0,2.0
1634893109.6875,0,0,4.845431427974911,0.0,2.0
1634893110.15625,0,0,15.691613264308703,0.0,2.0
1634893110.625,0,0,0.0,0.0,2.0
1634893111.09375,0,0,0.0,0.0,2.0
1634893111.5625,0,0,15.820497694385912,0.0,2.0
1634893112.03125,0,0,9.339649165768387,0.0,2.0
1634893112.5,0,0,7.151876897295246,0.0,2.0
1634893112.96875,0,0,7.2860729312042425,0.0,2.0
1634893113.4375,0,0,8.135944947599501,0.0,2.0
1634893113.90625,0,0,11.959958711862216,0.0,2.0
1634893114.375,0,0,4.385366434274204,0.0,2.0
1634893114.84375,0,0,0.0,0.0,2.0
1634893115.3125,0,0,12.2736627957534,0.0,2.0
1634893115.78125,0,0,23.861755008396607,0.0,2.0
1634893116.25,0,0,0.0,0.0,2.0
1634893116.71875,0,0,33.95806903234171,0.0,2.0
1634893117.1875,0,0,0.0,0.0,2.0
1634893117.65625,0,0,19.547181372638384,0.0,2.0
1634893118.125,0,0,0.0,0.0,2.0
1634893118.59375,0,0,20.035116813354698,0.0,2.0
1634893119.0625,0,0,0.0,0.0,2.0
1634893119.53125,0,0,11.778020597895509,0.0,2.0
1634893120.0,0,0,12.06209903423982,0.0,2.0
1634893120.46875,0,0,13.4381156829193,0.0,2.0
1634893120.9375,0,0,0.0,0.0,2.0
1634893121.40625,0,0,6.145945765088404,0.0,2.0
1634893121.875,0,0,36.148814361671576,0.0,2.0
1634893122.34375,0,0,0.0,0.0,2.0
1634893122.8125,0,0,19.925541376165604,0.0,2.0
1634893123.28125,0,0,-2.8750929208241645,0.0,2.0
1634893123.75,0,0,22.99036115327414,0.0,2.0
1634893124.21875,0,0,-17.907974984366007,0.0,2.0
1634893124.6875,0,0,16.278785880446257,0.0,2.0
1634893125.15625,0,0,6.658967630332347,0.0,2.0
1634893125.625,0,0,10.496093602364276,0.0,2.0
1634893126.09375,0,0,24.7675054429607,0.0,2.0
1634893126.5625,0,0,12.00405600504191,0.0,2.0
1634893127.03125,0,0,12.119422799951261,0.0,2.0
1634893127.5,0,0,35.685770635834494,0.0,2.0
1634893127.96875,0,0,17.728599855587433,0.0,2.0
1634893128.4375,0,0,0.0,0.0,2.0
1634893128.90625,0,0,3.6348570759686725,0.0,2.0
1634893129.375,0,0,0.0,0.0,2.0
1634893129.84375,0,0,0.0,0.0,2.0
1634893130.3125,0,0,15.397712120200762,0.0,2.0
1634893130.78125,0,0,0.0,0.0,2.0
1634893131.25,0,0,9.206671180564769,0.0,2.0
1634893131.71875,0,0,29.888936401350826,0.0,2.0
1634893132.1875,0,0,-19.658794084546717,0.0,2.0
1634893132.65625,0,0,16.379548915992455,0.0,2.0
1634893133.125,0,0,0.0,0.0,2.0
1634893133.59375,0,0,28.15551517236418,0.0,2.0
1634893134.0625,0,0,15.040176283552796,0.0,2.0
1634893134.53125,0,0,11.449813156192656,0.0,2.0
1634893135.0,0,0,0.0,0.0,2.0
1634893135.46875,0,0,31.963885806363173,0.0,2.0
1634893135.9375,0,0,0.0,0.0,2.0
1634893136.40625,0,0,17.649710986938665,0.0,2.0
1634893136.875,0,0,9.441902908800865,0.0,2.0
1634893137.34375,0,0,0.0,0.0,2.0
1634893137.8125,0,0,38.10421564889506,0.0,2.0
1634893138.28125,0,0,18.138318852355688,0.0,2.0
1634893138.75,0,0,18.68501672220968,0.0,2.0
1634893139.21875,0,0,11.471403065526488,0.0,2.0
1634893139.6875,0,0,17.45583857531331,0.0,2.0
1634893140.15625,0,0,-1.7935016285700105,0.0,2.0
1634893140.625,0,0,21.175352059389063,0.0,2.0
1634893141.09375,0,0,13.155920036167302,0.0,2.0
1634893141.5625,0,0,25.731520922262302,0.0,2.0
1634893142.03125,0,0,0.0,0.0,2.0
1634893142.5,0,0,12.499187405653487,0.0,2.0
1634893142.96875,0,0,6.579944123076696,0.0,2.0
1634893143.4375,0,0,0.0,0.0,2.0
1634893143.90625,0,0,34.61393092069616,0.0,2.0
1634893144.375,0,0,0.0,0.0,2.0
1634893144.84375,0,0,17.49929807814495,0.0,2.0
1634893145.3125,0,0,8.296559908060162,0.0,2.0
1634893145.78125,0,0,22.48253941316514,0.0,2.0
1634893146.25,0,0,0.0,0.0,2.0
1634893146.71875,0,0,10.091508532219985,0.0,2.0
1634893147.1875,0,0,0.0,0.0,2.0
1634893147.65625,0,0,12.846605233351147,0.0,2.0
1634893148.125,0,0,-9.084481302731653,0.0,2.0
1634893148.59375,0,0,0.8725932636309546,0.0,2.0
1634893149.0625,0,0,10.538555364940281,0.0,2.0
1634893149.53125,0,0,25.62244006469322,0.0,2.0
1634893150.0,0,0,0.0,0.0,2.0
1634893150.46875,0,0,15.368343832043983,0.0,2.0
1634893150.9375,0,0,0.0,0.0,2.0
1634893151.40625,0,0,10.647369174242984,0.0,2.0
1634893151.875,0,0,23.853375435598164,0.0,2.0
1634893152.34375,0,0,-8.804779904218536,0.0,2.0
1634893152.8125,0,0,11.705063522271217,0.0,2.0
1634893153.28125,0,0,0.0,0.0,2.0
1634893153.75,0,0,28.002384906310347,0.0,2.0
1634893154.21875,0,0,11.18928729113238,0.0,2.0
1634893154.6875,0,0,9.078598622076756,0.0,2.0
1634893155.15625,0,0,7.928829827712492,0.0,2.0
1634893155.625,0,0,31.214173166261656,0.0,2.0
1634893156.09375,0,0,-14.581574084301296,0.0,2.0
1634893156.5625,0,0,13.124624216108561,0.0,2.0
1634893157.03125,0,0,7.282744031863127,0.0,2.0
1634893157.5,0,0,0.0,0.0,2.0
1634893157.96875,0,0,10.509955826285017,0.0,2.0
1634893158.4375,0,0,-7.593628374742538,0.0,2.0
1634893158.90625,0,0,14.334495802705513,0.0,2.0
1634893159.375,0,0,10.636981927533805,0.0,2.0
1634893159.84375,0,0,0.0,0.0,2.0
1634893160.3125,0,0,14.925196524901839,0.0,2.0
1634893160.78125,0,0,4.9806134129622555,0.0,2.0
1634893161.25,0,0,11.9568355501452,0.0,2.0
1634893161.71875,0,0,-14.0407052656731,0.0,2.0
1634893162.1875,0,0,0.0,0.0,2.0
1634893162.65625,0,0,-18.377376554697054,0.0,2.0
1634893163.125,0,0,24.319490437610728,0.0,2.0
1634893163.59375,0,0,9.295228369307253,0.0,2.0
1634893164.0625,0,0,4.504040257413863,0.0,2.0
1634893164.53125,0,0,11.323683710015935,0.0,2.0
1634893165.0,0,0,0.0,0.0,2.0
1634893165.46875,0,0,5.073691571197088,0.0,2.0
1634893165.9375,0,0,8.021143165650532,0.0,2.0
1634893166.40625,0,0,4.885041825284945,0.0,2.0
1634893166.875,0,0,3.9094823516167354,0.0,2.0
1634893167.34375,0,0,5.804381641326793,0.0,2.0
1634893167.8125,0,0,4.894808044598369,0.0,2.0
1634893168.28125,0,0,8.113553893291199,0.0,2.0
1634893168.75,0,0,0.0,0.0,2.0
1634893169.21875,0,0,6.837198033631375,0.0,2.0
1634893169.6875,0,0,42.18340375106644,0.0,2.0
1634893170.15625,0,0,0.0,0.0,2.0
1634893170.625,0,0,25.47733386447325,0.0,2.0
1634893171.09375,0,0,20.66942084523919,0.0,2.0
1634893171.5625,0,0,0.0,0.0,2.0
1634893172.03125,0,0,0.0,0.0,2.0
1634893172.5,0,0,0.0,0.0,2.0
1634893172.96875,0,0,29.52674386257095,0.0,2.0
1634893173.4375,0,0,15.436538721270963,0.0,2.0
1634893173.90625,0,0,4.543454584838154,0.0,2.0
1634893174.375,0,0,18.187407906187744,0.0,2.0
1634893174.84375,0,0,0.0,0.0,2.0
1634893175.3125,0,0,5.486437420187886,0.0,2.0
1634893175.78125,0,0,0.0,0.0,2.0
1634893176.25,0,0,12.317942662285484,0.0,2.0
1634893176.71875,0,0,2.4499879098291797,0.0,2.0
1634893177.1875,0,0,0.0,0.0,2.0
1634893177.65625,0,0,5.603414359011105,0.0,2.0
1634893178.125,0,0,5.35618587395947,0.0,2.0
1634893178.59375,0,0,15.677211241685058,0.0,2.0
1634893179.0625,0,0,-3.3829718786018708,0.0,2.0
1634893179.53125,0,0,7.9820173992311565,0.0,2.0
1634893180.0,0,0,0.0,0.0,2.0
1634893180.46875,0,0,17.75935803688581,0.0,2.0
1634893180.9375,0,0,7.444832784748261,0.0,2.0
1634893181.40625,0,0,0.0,0.0,2.0
1634893181.875,0,0,5.04240010378938,0.0,2.0
1634893182.34375,0,0,17.253115422105644,0.0,2.0
1634893182.8125,0,0,10.194087042078456,0.0,2.0
1634893183.28125,0,0,8.597538936838975,0.0,2.0
1634893183.75,0,0,4.271077607484432,0.0,2.0
1634893184.21875,0,0,3.7777476130216336,0.0,2.0
1634893184.6875,0,0,16.821061316508132,0.0,2.0
1634893185.15625,0,0,0.0,0.0,2.0
1634893185.625,0,0,13.74066519339601,0.0,2.0
1634893186.09375,0,0,0.0,0.0,2.0
1634893186.5625,0,0,10.656334749659623,0.0,2.0
1634893187.03125,0,0,18.025708361207517,0.0,2.0
1634893187.5,0,0,0.8714933179755039,0.0,2.0
1634893187.96875,0,0,15.554219436433307,0.0,2.0
1634893188.4375,0,0,12.4295711489622,0.0,2.0
1634893188.90625,0,0,8.719692834696652,0.0,2.0
1634893189.375,0,0,14.417261990692662,0.0,2.0
1634893189.84375,0,0,0.0,0.0,2.0
1634893190.3125,0,0,12.948854343273736,0.0,2.0
1634893190.78125,0,0,9.331025569713338,0.0,2.0
1634893191.25,0,0,11.897663383008938,0.0,2.0
1634893191.71875,0,0,23.041868098782004,0.0,2.0
1634893192.1875,0,0,0.0,0.0,2.0
1634893192.65625,0,0,13.183917811646085,0.0,2.0
1634893193.125,0,0,25.48954750248406,0.0,2.0
1634893193.59375,0,0,0.0,0.0,2.0
1634893194.0625,0,0,7.684457859322614,0.0,2.0
1634893194.53125,0,0,0.0,0.0,2.0
1634893195.0,0,0,30.101076286383996,0.0,2.0
1634893195.46875,0,0,10.996604928687475,0.0,2.0
1634893195.9375,0,0,16.263331373682494,0.0,2.0
1634893196.40625,0,0,12.460761324940602,0.0,2.0
1634893196.875,0,0,0.0,0.0,2.0
1634893197.34375,0,0,21.5153119643556,0.0,2.0
1634893197.8125,0,0,3.4942520689621164,0.0,2.0
1634893198.28125,0,0,14.922064117659264,0.0,2.0
1634893198.75,0,0,16.427287306183675,0.0,2.0
1634893199.21875,0,0,4.909250175489019,0.0,2.0
1634893199.6875,0,0,7.258286627540554,0.0,2.0
1634893200.15625,0,0,12.519699034372158,0.0,2.0
1634893200.625,0,0,0.0,0.0,2.0
1634893201.09375,0,0,0.0,0.0,2.0
1634893201.5625,0,0,12.078736458647418,0.0,2.0
1634893202.03125,0,0,0.0,0.0,2.0
1634893202.5,0,0,12.519548384565669,0.0,2.0
1634893202.96875,0,0,13.827727630311342,0.0,2.0
1634893203.4375,0,0,25.91914340085922,0.0,2.0
1634893203.90625,0,0,6.192299149090068,0.0,2.0
1634893204.375,0,0,0.0,0.0,2.0
1634893204.84375,0,0,27.328000240875898,0.0,2.0
1634893205.3125,0,0,9.00859711126839,0.0,2.0
1634893205.78125,0,0,0.0,0.0,2.0
1634893206.25,0,0,11.237721536866383,0.0,2.0
1634893206.71875,0,0,16.1583096920646,0.0,2.0
1634893207.1875,0,0,0.0,0.0,2.0
1634893207.65625,0,0,16.288740311091413,0.0,2.0
1634893208.125,0,0,0.0,0.0,2.0
1634893208.59375,0,0,12.139740576552159,0.0,2.0
1634893209.0625,0,0,17.385950959493922,0.0,2.0
1634893209.53125,0,0,9.096698904619476,0.0,2.0
1634893210.0,0,0,8.867190137397003,0.0,2.0
1634893210.46875,0,0,11.977618752485295,0.0,2.0
1634893210.9375,0,0,11.609784176050882,0.0,2.0
1634893211.40625,0,0,6.703604783355197,0.0,2.0
1634893211.875,0,0,13.135247481140478,0.0,2.0
1634893212.34375,0,0,0.0,0.0,2.0
1634893212.8125,0,0,9.081562443533068,0.0,2.0
1634893213.28125,0,0,0.0,0.0,2.0
1634893213.75,0,0,8.59800995753964,0.0,2.0
1634893214.21875,0,0,10.017969928194598,0.0,2.0
1634893214.6875,0,0,0.0,0.0,2.0
1634893215.15625,0,0,17.37411612924914,0.0,2.0
1634893215.625,0,0,8.164513082931963,0.0,2.0
1634893216.09375,0,0,9.760235872583598,0.0,2.0
1634893216.5625,0,0,10.957395277256584,0.0,2.0
1634893217.03125,0,0,0.27660113543578263,0.0,2.0
1634893217.5,0,0,9.776671383799464,0.0,2.0
1634893217.96875,0,0,12.496681237564784,0.0,2.0
1634893218.4375,0,0,0.0,0.0,2.0
1634893218.90625,0,0,21.306959091830315,0.0,2.0
1634893219.375,0,0,11.698658201557361,0.0,2.0
1634893219.84375,0,0,-0.6821720017672731,0.0,2.0
1634893220.3125,0,0,10.626747424097823,0.0,2.0
1634893220.78125,0,0,15.074291167848868,0.0,2.0
1634893221.25,0,0,10.402014727852707,0.0,2.0
1634893221.71875,0,0,0.0,0.0,2.0
1634893222.1875,0,0,69.55509370364354,0.0,2.0
1634893222.65625,0,0,0.0,0.0,2.0
1634893223.125,0,0,1.1804890099586238,0.0,2.0
1634893223.59375,0,0,26.17498584484876,0.0,2.0
1634893224.0625,0,0,2.7186000580438128,0.0,2.0
1634893224.53125,0,0,5.4898765131094835,0.0,2.0
1634893225.0,0,0,4.831820254116814,0.0,2.0
1634893225.46875,0,0,6.350757362029622,0.0,2.0
1634893225.9375,0,0,6.926429493836681,0.0,2.0
1634893226.40625,0,0,5.715066294627177,0.0,2.0
1634893226.875,0,0,3.2627816897402555,0.0,2.0
1634893227.34375,0,0,0.0,0.0,2.0
1634893227.8125,0,0,20.948939440013255,0.0,2.0
1634893228.28125,0,0,-0.37368867556754853,0.0,2.0
1634893228.75,0,0,3.060369044371405,0.0,2.0
1634893229.21875,0,0,24.80559695500259,0.0,2.0
1634893229.6875,0,0,23.516517464212598,0.0,2.0
1634893230.15625,0,0,0.0,0.0,2.0
1634893230.625,0,0,11.492015725236072,0.0,2.0
1634893231.09375,0,0,13.51356731220815,0.0,2.0
1634893231.5625,0,0,6.2876769478397625,0.0,2.0
1634893232.03125,0,0,19.63075718830552,0.0,2.0
1634893232.5,0,0,2.0299611044880024,0.0,2.0
1634893232.96875,0,0,7.2066183182308805,0.0,2.0
1634893233.4375,0,0,0.0,0.0,2.0
1634893233.90625,0,0,30.67333166671941,0.0,2.0
1634893234.375,0,0,0.0,0.0,2.0
1634893234.84375,0,0,7.620734438582425,0.0,2.0
1634893235.3125,0,0,8.239515909698836,0.0,2.0
1634893235.78125,0,0,29.620037870734812,0.0,2.0
1634893236.25,0,0,0.0,0.0,2.0
1634893236.71875,0,0,13.581877139748812,0.0,2.0
1634893237.1875,0,0,0.0,0.0,2.0
1634893237.65625,0,0,23.721895042401428,0.0,2.0
1634893238.125,0,0,0.0,0.0,2.0
1634893238.59375,0,0,-4.561076217804861,0.0,2.0
1634893239.0625,0,0,12.328469900344054,0.0,2.0
1634893239.53125,0,0,0.0,0.0,2.0
1634893240.0,0,0,40.42047954892115,0.0,2.0
1634893240.46875,0,0,12.979196291173706,0.0,2.0
1634893240.9375,0,0,12.79568992505534,0.0,2.0
1634893241.40625,0,0,13.040925682782795,0.0,2.0
1634893241.875,0,0,25.444654257998753,0.0,2.0
1634893242.34375,0,0,0.0,0.0,2.0
1634893242.8125,0,0,15.34992702738022,0.0,2.0
1634893243.28125,0,0,8.746241388110233,0.0,2.0
1634893243.75,0,0,10.031389424752039,0.0,2.0
1634893244.21875,0,0,40.37491734905589,0.0,2.0
1634893244.6875,0,0,0.0,0.0,2.0
1634893245.15625,0,0,15.738918610407243,0.0,2.0
1634893245.625,0,0,0.0,0.0,2.0
1634893246.09375,0,0,35.694696716574214,0.0,2.0
1634893246.5625,0,0,0.0,0.0,2.0
1634893247.03125,0,0,11.906149710143255,0.0,2.0
1634893247.5,0,0,14.490082674144153,0.0,2.0
1634893247.96875,0,0,0.0,0.0,2.0
1634893248.4375,0,0,54.5483526368494,0.0,2.0
1634893248.90625,0,0,14.868161131755803,0.0,2.0
1634893249.375,0,0,0.0,0.0,2.0
1634893249.84375,0,0,17.89693796426262,0.0,2.0
1634893250.3125,0,0,0.0,0.0,2.0
1634893250.78125,0,0,-1.3536585931941185,0.0,2.0
1634893251.25,0,0,17.18692923727052,0.0,2.0
