timestamp,mean_pulse_rate,pulse_rate_std,mean_pulse_amplitude,pulse_amplitude_std,block
1634891932.59375,0,0,37.98701105621168,0.0,1.0
1634891933.0625,0,0,0.0,0.0,1.0
1634891933.53125,0,0,168.45313138817164,0.0,1.0
1634891934.0,0,0,29.081547146504732,0.0,1.0
1634891934.46875,0,0,0.0,0.0,1.0
1634891934.9375,0,0,54.98639772155966,0.0,1.0
1634891935.40625,0,0,33.28361182597033,0.0,1.0
1634891935.875,0,0,0.0,0.0,1.0
1634891936.34375,0,0,9.007306492729949,0.0,1.0
1634891936.8125,0,0,13.274479584062862,0.0,1.0
1634891937.28125,0,0,0.0,0.0,1.0
1634891937.75,0,0,85.23024174682517,0.0,1.0
1634891938.21875,0,0,33.523397883812144,0.0,1.0
1634891938.6875,0,0,0.0,0.0,1.0
1634891939.15625,0,0,177.50261355892158,0.0,1.0
1634891939.625,0,0,217.60031335788622,0.0,1.0
1634891940.09375,0,0,61.51883248901908,0.0,1.0
1634891940.5625,0,0,-51.994372653367336,0.0,1.0
1634891941.03125,0,0,241.54503175592748,0.0,1.0
1634891941.5,0,0,97.13529638645072,0.0,1.0
1634891941.96875,0,0,-11.140478913112142,0.0,1.0
1634891942.4375,0,0,88.01330389527561,0.0,1.0
1634891942.90625,0,0,0.0,0.0,1.0
1634891943.375,0,0,18.239876328834935,0.0,1.0
1634891943.84375,0,0,0.0,0.0,1.0
1634891944.3125,0,0,24.198146570370117,0.0,1.0
1634891944.78125,0,0,15.185419733793855,0.0,1.0
1634891945.25,0,0,8.75142507947291,0.0,1.0
1634891945.71875,0,0,0.0,0.0,1.0
1634891946.1875,0,0,14.869717617281898,0.0,1.0
1634891946.65625,0,0,12.321400360343562,0.0,1.0
1634891947.125,0,0,46.017065926301264,0.0,1.0
1634891947.59375,0,0,0.0,0.0,1.0
1634891948.0625,0,0,34.119769083671564,0.0,1.0
1634891948.53125,0,0,26.769486182762943,0.0,1.0
1634891949.0,0,0,-8.356060500525377,0.0,1.0
1634891949.46875,0,0,-7.487707040213104,0.0,1.0
1634891949.9375,0,0,65.72699974719986,0.0,1.0
1634891950.40625,0,0,21.606230063192402,0.0,1.0
1634891950.875,0,0,-6.80604053737318,0.0,1.0
1634891951.34375,0,0,0.0,0.0,1.0
1634891951.8125,0,0,9.333931774296975,0.0,1.0
1634891952.28125,0,0,7.461776939680325,0.0,1.0
1634891952.75,0,0,0.0,0.0,1.0
1634891953.21875,0,0,5.120722039800163,0.0,1.0
1634891953.6875,0,0,4.708048230679463,0.0,1.0
1634891954.15625,0,0,4.675503760530178,0.0,1.0
1634891954.625,0,0,1.5536424165603484,0.0,1.0
1634891955.09375,0,0,5.563028926338827,0.0,1.0
1634891955.5625,0,0,4.9828585628657835,0.0,1.0
1634891956.03125,0,0,3.087581919242426,0.0,1.0
1634891956.5,0,0,3.84854528554195,0.0,1.0
1634891956.96875,0,0,4.089158447083032,0.0,1.0
1634891957.4375,0,0,2.19346697817663,0.0,1.0
1634891957.90625,0,0,5.197148386047182,0.0,1.0
1634891958.375,0,0,6.892387631582627,0.0,1.0
1634891958.84375,0,0,0.6305090608303523,0.0,1.0
1634891959.3125,0,0,4.537234349541931,0.0,1.0
1634891959.78125,0,0,5.262462154032211,0.0,1.0
1634891960.25,0,0,4.164548714671401,0.0,1.0
1634891960.71875,0,0,2.735645945557549,0.0,1.0
1634891961.1875,0,0,8.661405106088825,0.0,1.0
1634891961.65625,0,0,7.256385492120634,0.0,1.0
1634891962.125,0,0,9.887208192205545,0.0,1.0
1634891962.59375,0,0,0.0,0.0,1.0
1634891963.0625,0,0,16.19670737464471,0.0,1.0
1634891963.53125,0,0,50.43479892214553,0.0,1.0
1634891964.0,0,0,7.740047417270478,0.0,1.0
1634891964.46875,0,0,8.813524721017254,0.0,1.0
1634891964.9375,0,0,13.003844102352554,0.0,1.0
1634891965.40625,0,0,5.344122097615897,0.0,1.0
1634891965.875,0,0,7.223484060735637,0.0,1.0
1634891966.34375,0,0,6.9541652624072485,0.0,1.0
1634891966.8125,0,0,8.14434112913356,0.0,1.0
1634891967.28125,0,0,5.865906045906147,0.0,1.0
1634891967.75,0,0,3.0287809823822167,0.0,1.0
1634891968.21875,0,0,8.739731918168859,0.0,1.0
1634891968.6875,0,0,7.0025389871633825,0.0,1.0
1634891969.15625,0,0,5.820735006976285,0.0,1.0
1634891969.625,0,0,1.3524043443489335,0.0,1.0
1634891970.09375,0,0,6.084350814496971,0.0,1.0
1634891970.5625,0,0,4.930036871319467,0.0,1.0
1634891971.03125,0,0,2.4473692320984157,0.0,1.0
1634891971.5,0,0,2.927370468553125,0.0,1.0
1634891971.96875,0,0,8.506972574040933,0.0,1.0
1634891972.4375,0,0,6.710048935717373,0.0,1.0
1634891972.90625,0,0,3.707386026369974,0.0,1.0
1634891973.375,0,0,4.7865863870639975,0.0,1.0
1634891973.84375,0,0,8.494086591444571,0.0,1.0
1634891974.3125,0,0,4.735162679975292,0.0,1.0
1634891974.78125,0,0,3.380121536973372,0.0,1.0
1634891975.25,0,0,5.842805626148154,0.0,1.0
1634891975.71875,0,0,6.086613862877874,0.0,1.0
1634891976.1875,0,0,11.863835711120936,0.0,1.0
1634891976.65625,0,0,5.172169639540964,0.0,1.0
1634891977.125,0,0,5.701311859461319,0.0,1.0
1634891977.59375,0,0,5.1178106065986295,0.0,1.0
1634891978.0625,0,0,12.170688498238206,0.0,1.0
1634891978.53125,0,0,9.869692591196854,0.0,1.0
1634891979.0,0,0,6.172624696427118,0.0,1.0
1634891979.46875,0,0,10.199615825525903,0.0,1.0
1634891979.9375,0,0,4.023796197263654,0.0,1.0
1634891980.40625,0,0,8.858027872873187,0.0,1.0
1634891980.875,0,0,6.101090382595091,0.0,1.0
1634891981.34375,0,0,5.2970629668197695,0.0,1.0
1634891981.8125,0,0,5.553696945898474,0.0,1.0
1634891982.28125,0,0,5.407435011306298,0.0,1.0
1634891982.75,0,0,7.534913559383831,0.0,1.0
1634891983.21875,0,0,3.827399125613398,0.0,1.0
1634891983.6875,0,0,5.104496541759709,0.0,1.0
1634891984.15625,0,0,5.792281500280994,0.0,1.0
1634891984.625,0,0,6.893979138967025,0.0,1.0
1634891985.09375,0,0,4.750031939511776,0.0,1.0
1634891985.5625,0,0,4.117525459420081,0.0,1.0
1634891986.03125,0,0,8.114691296926113,0.0,1.0
1634891986.5,0,0,7.818347703449792,0.0,1.0
1634891986.96875,0,0,3.339094139066416,0.0,1.0
1634891987.4375,0,0,5.456755880769029,0.0,1.0
1634891987.90625,0,0,8.50637626873208,0.0,1.0
1634891988.375,0,0,5.865637507222467,0.0,1.0
1634891988.84375,0,0,8.270446124340562,0.0,1.0
1634891989.3125,0,0,3.4198908847940332,0.0,1.0
1634891989.78125,0,0,8.316412309427637,0.0,1.0
1634891990.25,0,0,5.0635007165185995,0.0,1.0
1634891990.71875,0,0,6.4485564217930404,0.0,1.0
1634891991.1875,0,0,4.574076373168727,0.0,1.0
1634891991.65625,0,0,0.8803637100241225,0.0,1.0
1634891992.125,0,0,9.215784755946721,0.0,1.0
1634891992.59375,0,0,4.856860164356296,0.0,1.0
1634891993.0625,0,0,6.953299763559112,0.0,1.0
1634891993.53125,0,0,0.0,0.0,1.0
1634891994.0,0,0,7.518300837126161,0.0,1.0
1634891994.46875,0,0,6.483698772690726,0.0,1.0
1634891994.9375,0,0,5.824574070530722,0.0,1.0
1634891995.40625,0,0,1.6822899229675106,0.0,1.0
1634891995.875,0,0,7.337365815233537,0.0,1.0
1634891996.34375,0,0,6.785254234491866,0.0,1.0
1634891996.8125,0,0,5.089179054112609,0.0,1.0
1634891997.28125,0,0,7.2955457520732585,0.0,1.0
1634891997.75,0,0,0.0,0.0,1.0
1634891998.21875,0,0,6.143666700819516,0.0,1.0
1634891998.6875,0,0,8.975956481487438,0.0,1.0
1634891999.15625,0,0,-1.2293660730675937,0.0,1.0
1634891999.625,0,0,8.332268219648498,0.0,1.0
1634892000.09375,0,0,10.728741754662993,0.0,1.0
1634892000.5625,0,0,4.997645879117648,0.0,1.0
1634892001.03125,0,0,6.594516189152645,0.0,1.0
1634892001.5,0,0,5.836705327303095,0.0,1.0
1634892001.96875,0,0,7.68904065885118,0.0,1.0
1634892002.4375,0,0,7.156356563281844,0.0,1.0
1634892002.90625,0,0,8.442147590251855,0.0,1.0
1634892003.375,0,0,5.799287162328576,0.0,1.0
1634892003.84375,0,0,7.206585662557142,0.0,1.0
1634892004.3125,0,0,7.079429776345493,0.0,1.0
1634892004.78125,0,0,6.246978422327355,0.0,1.0
1634892005.25,0,0,7.006916780901172,0.0,1.0
1634892005.71875,0,0,0.0,0.0,1.0
1634892006.1875,0,0,0.0,0.0,1.0
1634892006.65625,0,0,4.640072481184321,0.0,1.0
1634892007.125,0,0,7.1118941225844505,0.0,1.0
1634892007.59375,0,0,5.961134117745461,0.0,1.0
1634892008.0625,0,0,5.072774265818312,0.0,1.0
1634892008.53125,0,0,8.020075375303419,0.0,1.0
1634892009.0,0,0,5.370235113011259,0.0,1.0
1634892009.46875,0,0,6.1587032995174855,0.0,1.0
1634892009.9375,0,0,11.374586750025216,0.0,1.0
1634892010.40625,0,0,5.192201252649146,0.0,1.0
1634892010.875,0,0,2.7002084343235127,0.0,1.0
1634892011.34375,0,0,2.900721886412014,0.0,1.0
1634892011.8125,0,0,0.0,0.0,1.0
1634892012.28125,0,0,0.0,0.0,1.0
1634892012.75,0,0,64.21880676788044,0.0,1.0
1634892013.21875,0,0,0.0,0.0,1.0
1634892013.6875,0,0,41.56558164962608,0.0,1.0
1634892014.15625,0,0,2.240680448104223,0.0,1.0
1634892014.625,0,0,4.080402032764296,0.0,1.0
1634892015.09375,0,0,2.3945550648757776,0.0,1.0
1634892015.5625,0,0,7.407875328363684,0.0,1.0
1634892016.03125,0,0,2.386842286115643,0.0,1.0
1634892016.5,0,0,0.4177218381773589,0.0,1.0
1634892016.96875,0,0,4.140777517406214,0.0,1.0
1634892017.4375,0,0,6.5349445090924325,0.0,1.0
1634892017.90625,0,0,2.6351419339833577,0.0,1.0
1634892018.375,0,0,3.4949824909656737,0.0,1.0
1634892018.84375,0,0,-3.5459501847324884,0.0,1.0
1634892019.3125,0,0,82.57606647172017,0.0,1.0
1634892019.78125,0,0,0.0,0.0,1.0
1634892020.25,0,0,20.817038702723433,0.0,1.0
1634892020.71875,0,0,14.87302134953849,0.0,1.0
1634892021.1875,0,0,1.4806510551343597,0.0,1.0
1634892021.65625,0,0,12.418631710376411,0.0,1.0
1634892022.125,0,0,0.0,0.0,1.0
1634892022.59375,0,0,7.566136211236117,0.0,1.0
1634892023.0625,0,0,4.0273169441693,0.0,1.0
1634892023.53125,0,0,0.0,0.0,1.0
1634892024.0,0,0,9.762356037526402,0.0,1.0
1634892024.46875,0,0,2.578533525962806,0.0,1.0
1634892024.9375,0,0,3.2718512137048266,0.0,1.0
1634892025.40625,0,0,7.730112009851881,0.0,1.0
1634892025.875,0,0,4.971467625753152,0.0,1.0
1634892026.34375,0,0,2.859489109562522,0.0,1.0
1634892026.8125,0,0,3.029261129959478,0.0,1.0
1634892027.28125,0,0,6.516527450370155,0.0,1.0
1634892027.75,0,0,4.113729970844115,0.0,1.0
1634892028.21875,0,0,3.0356084839445643,0.0,1.0
1634892028.6875,0,0,1.9775616337521251,0.0,1.0
1634892029.15625,0,0,5.00303371629918,0.0,1.0
1634892029.625,0,0,4.912679654979202,0.0,1.0
1634892030.09375,0,0,4.817030944911311,0.0,1.0
1634892030.5625,0,0,2.1571559594138408,0.0,1.0
1634892031.03125,0,0,6.8800956969405025,0.0,1.0
1634892031.5,0,0,5.06921916052227,0.0,1.0
1634892031.96875,0,0,0.0,0.0,1.0
1634892032.4375,0,0,5.67962612833788,0.0,1.0
1634892032.90625,0,0,4.358555784122014,0.0,1.0
1634892033.375,0,0,4.091767437828606,0.0,1.0
1634892033.84375,0,0,2.6953543296609057,0.0,1.0
1634892034.3125,0,0,8.1977475801223,0.0,1.0
1634892034.78125,0,0,1.8008649147745355,0.0,1.0
1634892035.25,0,0,3.0155944156072163,0.0,1.0
1634892035.71875,0,0,7.873609060575737,0.0,1.0
1634892036.1875,0,0,5.724853453232309,0.0,1.0
1634892036.65625,0,0,4.697502051237982,0.0,1.0
1634892037.125,0,0,7.1448510528285984,0.0,1.0
1634892037.59375,0,0,6.764098468771204,0.0,1.0
1634892038.0625,0,0,6.853976657258517,0.0,1.0
1634892038.53125,0,0,1.8804480956371448,0.0,1.0
1634892039.0,0,0,8.405312084934385,0.0,1.0
1634892039.46875,0,0,8.743258368530743,0.0,1.0
1634892039.9375,0,0,8.689359081783511,0.0,1.0
1634892040.40625,0,0,7.386380087329159,0.0,1.0
1634892040.875,0,0,18.45848057618935,0.0,1.0
1634892041.34375,0,0,10.617690518926834,0.0,1.0
1634892041.8125,0,0,14.36570522768579,0.0,1.0
1634892042.28125,0,0,8.083456412261617,0.0,1.0
1634892042.75,0,0,7.030997415481694,0.0,1.0
1634892043.21875,0,0,12.534136041321284,0.0,1.0
1634892043.6875,0,0,13.270871346706773,0.0,1.0
1634892044.15625,0,0,0.0,0.0,1.0
1634892044.625,0,0,12.45822765433286,0.0,1.0
1634892045.09375,0,0,-7.224990228494829,0.0,1.0
1634892045.5625,0,0,80.10051426207885,0.0,1.0
1634892046.03125,0,0,11.605379318163168,0.0,1.0
1634892046.5,0,0,24.348484443668085,0.0,1.0
1634892046.96875,0,0,0.0,0.0,1.0
1634892047.4375,0,0,25.009713487786357,0.0,1.0
1634892047.90625,0,0,30.80183783696928,0.0,1.0
1634892048.375,0,0,14.680105998788632,0.0,1.0
1634892048.84375,0,0,0.0,0.0,1.0
1634892049.3125,0,0,9.963695508559812,0.0,1.0
1634892049.78125,0,0,0.0,0.0,1.0
1634892050.25,0,0,19.72077978994986,0.0,1.0
1634892050.71875,0,0,13.408659651124797,0.0,1.0
1634892051.1875,0,0,0.0,0.0,1.0
1634892051.65625,0,0,51.511637537357764,0.0,1.0
1634892052.125,0,0,3.913491518648684,0.0,1.0
1634892052.59375,0,0,0.0,0.0,1.0
1634892053.0625,0,0,12.896699392407236,0.0,1.0
1634892053.53125,0,0,35.06997344739913,0.0,1.0
1634892054.0,0,0,0.0,0.0,1.0
1634892054.46875,0,0,0.0,0.0,1.0
1634892054.9375,0,0,9.106582639069627,0.0,1.0
1634892055.40625,0,0,11.105245962732184,0.0,1.0
1634892055.875,0,0,0.0,0.0,1.0
1634892056.34375,0,0,9.217334695680567,0.0,1.0
1634892056.8125,0,0,12.371030471805044,0.0,1.0
1634892057.28125,0,0,5.975759161458251,0.0,1.0
1634892057.75,0,0,15.078984741177527,0.0,1.0
1634892058.21875,0,0,10.408713801901763,0.0,1.0
1634892058.6875,0,0,0.0,0.0,1.0
1634892059.15625,0,0,11.57104533162089,0.0,1.0
1634892059.625,0,0,8.336280087895847,0.0,1.0
1634892060.09375,0,0,0.0,0.0,1.0
1634892060.5625,0,0,8.586368069973632,0.0,1.0
1634892061.03125,0,0,7.232750254334865,0.0,1.0
1634892061.5,0,0,0.0,0.0,1.0
1634892061.96875,0,0,17.391229114439295,0.0,1.0
1634892062.4375,0,0,-2.081664559260172,0.0,1.0
1634892062.90625,0,0,4.198671298237954,0.0,1.0
1634892063.375,0,0,12.292726583591318,0.0,1.0
1634892063.84375,0,0,10.280674694446194,0.0,1.0
1634892064.3125,0,0,2.433517434757396,0.0,1.0
1634892064.78125,0,0,8.673705573714324,0.0,1.0
1634892065.25,0,0,0.0,0.0,1.0
1634892065.71875,0,0,8.396030193035566,0.0,1.0
1634892066.1875,0,0,20.88916421520987,0.0,1.0
1634892066.65625,0,0,0.0,0.0,1.0
1634892067.125,0,0,27.112582592677295,0.0,1.0
1634892067.59375,0,0,13.231482468496278,0.0,1.0
1634892068.0625,0,0,-27.184254002815038,0.0,1.0
1634892068.53125,0,0,79.45168048315334,0.0,1.0
1634892069.0,0,0,13.905356454025153,0.0,1.0
1634892069.46875,0,0,7.793685202866978,0.0,1.0
1634892069.9375,0,0,11.741730038180297,0.0,1.0
1634892070.40625,0,0,9.77072650366929,0.0,1.0
1634892070.875,0,0,0.0,0.0,1.0
1634892071.34375,0,0,7.0230314055419925,0.0,1.0
1634892071.8125,0,0,13.436161340737298,0.0,1.0
1634892072.28125,0,0,0.0,0.0,1.0
1634892072.75,0,0,8.5446519743198,0.0,1.0
1634892073.21875,0,0,7.53400701320228,0.0,1.0
1634892073.6875,0,0,13.537572058964612,0.0,1.0
1634892074.15625,0,0,0.0,0.0,1.0
1634892074.625,0,0,125.95190141932936,0.0,1.0
1634892075.09375,0,0,13.138886099389865,0.0,1.0
1634892075.5625,0,0,183.75537430980182,0.0,1.0
1634892076.03125,0,0,20.60494851155982,0.0,1.0
1634892076.5,0,0,16.60890687069003,0.0,1.0
1634892076.96875,0,0,0.0,0.0,1.0
1634892077.4375,0,0,42.7788086192841,0.0,1.0
1634892077.90625,0,0,0.0,0.0,1.0
1634892078.375,0,0,0.0,0.0,1.0
1634892078.84375,0,0,0.0,0.0,1.0
1634892079.3125,0,0,0.0,0.0,1.0
1634892079.78125,0,0,59.99696814821739,0.0,1.0
1634892080.25,0,0,0.0,0.0,1.0
1634892080.71875,0,0,0.0,0.0,1.0
1634892081.1875,0,0,17.181420815934274,0.0,1.0
1634892081.65625,0,0,35.978399508350726,0.0,1.0
1634892082.125,0,0,-0.23984665177580605,0.0,1.0
1634892082.59375,0,0,-1.1848095071094966,0.0,1.0
1634892083.0625,0,0,4.571647114248239,0.0,1.0
1634892083.53125,0,0,11.270565547343848,0.0,1.0
1634892084.0,0,0,0.0,0.0,1.0
1634892084.46875,0,0,8.552609824043383,0.0,1.0
1634892084.9375,0,0,0.0,0.0,1.0
1634892085.40625,0,0,6.3951141493459565,0.0,1.0
1634892085.875,0,0,6.5876658410248865,0.0,1.0
1634892086.34375,0,0,5.010704515340059,0.0,1.0
1634892086.8125,0,0,0.0,0.0,1.0
1634892087.28125,0,0,4.279244189817663,0.0,1.0
1634892087.75,0,0,3.786802293617847,0.0,1.0
1634892088.21875,0,0,0.0,0.0,1.0
1634892088.6875,0,0,5.8699667377814535,0.0,1.0
1634892089.15625,0,0,4.527872077229002,0.0,1.0
1634892089.625,0,0,4.93808712544543,0.0,1.0
1634892090.09375,0,0,5.2264276550764945,0.0,1.0
1634892090.5625,0,0,2.5568340874711692,0.0,1.0
1634892091.03125,0,0,4.144410571968508,0.0,1.0
1634892091.5,0,0,4.854655837150829,0.0,1.0
1634892091.96875,0,0,0.0,0.0,1.0
1634892092.4375,0,0,6.557791011844159,0.0,1.0
1634892092.90625,0,0,7.799662111484143,0.0,1.0
1634892093.375,0,0,5.613632682567091,0.0,1.0
1634892093.84375,0,0,0.0,0.0,1.0
1634892094.3125,0,0,7.402773585478087,0.0,1.0
1634892094.78125,0,0,6.860377573419051,0.0,1.0
1634892095.25,0,0,0.0,0.0,1.0
1634892095.71875,0,0,7.571994229084775,0.0,1.0
1634892096.1875,0,0,7.783122304646552,0.0,1.0
1634892096.65625,0,0,0.0,0.0,1.0
1634892097.125,0,0,6.442975437822874,0.0,1.0
1634892097.59375,0,0,0.0,0.0,1.0
1634892098.0625,0,0,0.0,0.0,1.0
1634892098.53125,0,0,7.508961787010274,0.0,1.0
1634892099.0,0,0,0.0,0.0,1.0
1634892099.46875,0,0,46.177373139689,0.0,1.0
1634892099.9375,0,0,0.0,0.0,1.0
1634892100.40625,0,0,5.147479413559624,0.0,1.0
1634892100.875,0,0,4.114459197947558,0.0,1.0
1634892101.34375,0,0,8.878626316895769,0.0,1.0
1634892101.8125,0,0,0.0,0.0,1.0
1634892102.28125,0,0,7.063224108251224,0.0,1.0
1634892102.75,0,0,11.865093686203904,0.0,1.0
1634892103.21875,0,0,0.0,0.0,1.0
1634892103.6875,0,0,9.740569303482378,0.0,1.0
1634892104.15625,0,0,10.669410513665847,0.0,1.0
1634892104.625,0,0,0.0,0.0,1.0
1634892105.09375,0,0,14.40870370255069,0.0,1.0
1634892105.5625,0,0,3.6375160879525725,0.0,1.0
1634892106.03125,0,0,2.071291638992737,0.0,1.0
1634892106.5,0,0,15.979006464084595,0.0,1.0
1634892106.96875,0,0,10.07029609180134,0.0,1.0
1634892107.4375,0,0,9.570579067952893,0.0,1.0
1634892107.90625,0,0,8.684304737760577,0.0,1.0
1634892108.375,0,0,0.0,0.0,1.0
1634892108.84375,0,0,9.644791565777055,0.0,1.0
1634892109.3125,0,0,9.245326107013423,0.0,1.0
1634892109.78125,0,0,8.815348266943039,0.0,1.0
1634892110.25,0,0,0.0,0.0,1.0
1634892110.71875,0,0,9.729232153901425,0.0,1.0
1634892111.1875,0,0,12.197704123600907,0.0,1.0
1634892111.65625,0,0,0.0,0.0,1.0
1634892112.125,0,0,7.245345354690383,0.0,1.0
1634892112.59375,0,0,0.0,0.0,1.0
1634892113.0625,0,0,11.247121871722603,0.0,1.0
1634892113.53125,0,0,11.218425666462657,0.0,1.0
1634892114.0,0,0,0.0,0.0,1.0
1634892114.46875,0,0,11.371700900167438,0.0,1.0
1634892114.9375,0,0,10.243153615412142,0.0,1.0
1634892115.40625,0,0,0.0,0.0,1.0
1634892115.875,0,0,6.311010472721263,0.0,1.0
1634892116.34375,0,0,7.090302730126586,0.0,1.0
1634892116.8125,0,0,0.0,0.0,1.0
1634892117.28125,0,0,7.2414532119452995,0.0,1.0
1634892117.75,0,0,9.546523127860823,0.0,1.0
1634892118.21875,0,0,0.0,0.0,1.0
1634892118.6875,0,0,7.69000823414201,0.0,1.0
1634892119.15625,0,0,12.97061870812214,0.0,1.0
1634892119.625,0,0,0.0,0.0,1.0
1634892120.09375,0,0,6.411779863011403,0.0,1.0
1634892120.5625,0,0,8.342047448522035,0.0,1.0
1634892121.03125,0,0,0.0,0.0,1.0
1634892121.5,0,0,8.896894194409937,0.0,1.0
1634892121.96875,0,0,8.331443257970932,0.0,1.0
1634892122.4375,0,0,0.0,0.0,1.0
1634892122.90625,0,0,9.534345523279924,0.0,1.0
1634892123.375,0,0,9.958984209102123,0.0,1.0
1634892123.84375,0,0,0.0,0.0,1.0
1634892124.3125,0,0,8.270621326287497,0.0,1.0
1634892124.78125,0,0,15.789619336011619,0.0,1.0
1634892125.25,0,0,0.0,0.0,1.0
1634892125.71875,0,0,8.025978319328527,0.0,1.0
1634892126.1875,0,0,-8.47760767927893,0.0,1.0
1634892126.65625,0,0,58.23401225517088,0.0,1.0
1634892127.125,0,0,394.31616259197784,0.0,1.0
1634892127.59375,0,0,0.0,0.0,1.0
1634892128.0625,0,0,35.46097326093308,0.0,1.0
1634892128.53125,0,0,21.871593903835976,0.0,1.0
1634892129.0,0,0,-6.648215010607547,0.0,1.0
1634892129.46875,0,0,16.301140333672507,0.0,1.0
1634892129.9375,0,0,2.833420764806202,0.0,1.0
1634892130.40625,0,0,15.066494462472773,0.0,1.0
1634892130.875,0,0,12.716790637696988,0.0,1.0
1634892131.34375,0,0,14.705295755604206,0.0,1.0
1634892131.8125,0,0,0.0,0.0,1.0
1634892132.28125,0,0,14.207574641704424,0.0,1.0
1634892132.75,0,0,13.293129134376771,0.0,1.0
1634892133.21875,0,0,0.0,0.0,1.0
1634892133.6875,0,0,10.651990642786492,0.0,1.0
1634892134.15625,0,0,11.536459957301666,0.0,1.0
1634892134.625,0,0,0.0,0.0,1.0
1634892135.09375,0,0,8.635716774116196,0.0,1.0
1634892135.5625,0,0,9.420323871404518,0.0,1.0
1634892136.03125,0,0,0.0,0.0,1.0
1634892136.5,0,0,9.779647001368721,0.0,1.0
1634892136.96875,0,0,0.0,0.0,1.0
1634892137.4375,0,0,9.123646593863507,0.0,1.0
1634892137.90625,0,0,11.25092811834143,0.0,1.0
1634892138.375,0,0,0.0,0.0,1.0
1634892138.84375,0,0,9.60362784665485,0.0,1.0
1634892139.3125,0,0,9.86571632496807,0.0,1.0
1634892139.78125,0,0,4.585688225616709,0.0,1.0
1634892140.25,0,0,8.500568710762169,0.0,1.0
1634892140.71875,0,0,10.200021185793057,0.0,1.0
1634892141.1875,0,0,0.0,0.0,1.0
1634892141.65625,0,0,8.305983204188017,0.0,1.0
1634892142.125,0,0,10.36635395369129,0.0,1.0
1634892142.59375,0,0,0.0,0.0,1.0
1634892143.0625,0,0,8.948215007394067,0.0,1.0
1634892143.53125,0,0,0.0,0.0,1.0
1634892144.0,0,0,12.836295659828897,0.0,1.0
1634892144.46875,0,0,9.787391775370379,0.0,1.0
1634892144.9375,0,0,0.0,0.0,1.0
1634892145.40625,0,0,10.238272723629139,0.0,1.0
1634892145.875,0,0,8.585034832816078,0.0,1.0
1634892146.34375,0,0,0.0,0.0,1.0
1634892146.8125,0,0,7.9366628763115,0.0,1.0
1634892147.28125,0,0,6.764892299643932,0.0,1.0
1634892147.75,0,0,7.330445872846105,0.0,1.0
1634892148.21875,0,0,9.41090567271424,0.0,1.0
1634892148.6875,0,0,7.889290999284711,0.0,1.0
1634892149.15625,0,0,0.0,0.0,1.0
1634892149.625,0,0,6.955170266465223,0.0,1.0
1634892150.09375,0,0,8.00363954115916,0.0,1.0
1634892150.5625,0,0,0.0,0.0,1.0
1634892151.03125,0,0,7.730623732354303,0.0,1.0
1634892151.5,0,0,7.733235960638449,0.0,1.0
1634892151.96875,0,0,0.0,0.0,1.0
1634892152.4375,0,0,8.871302304553435,0.0,1.0
1634892152.90625,0,0,7.657320233268462,0.0,1.0
1634892153.375,0,0,0.0,0.0,1.0
1634892153.84375,0,0,7.394845628579065,0.0,1.0
1634892154.3125,0,0,8.777274646105734,0.0,1.0
1634892154.78125,0,0,0.0,0.0,1.0
1634892155.25,0,0,5.028770011018074,0.0,1.0
1634892155.71875,0,0,9.728197471709025,0.0,1.0
1634892156.1875,0,0,6.404024664008527,0.0,1.0
1634892156.65625,0,0,0.0,0.0,1.0
1634892157.125,0,0,4.343028549474963,0.0,1.0
1634892157.59375,0,0,10.334613497264295,0.0,1.0
1634892158.0625,0,0,0.0,0.0,1.0
1634892158.53125,0,0,5.992905673995399,0.0,1.0
1634892159.0,0,0,4.271775685754261,0.0,1.0
1634892159.46875,0,0,0.0,0.0,1.0
1634892159.9375,0,0,7.872111381298457,0.0,1.0
1634892160.40625,0,0,6.04738898284778,0.0,1.0
1634892160.875,0,0,0.0,0.0,1.0
1634892161.34375,0,0,0.0,0.0,1.0
1634892161.8125,0,0,5.384728308172927,0.0,1.0
1634892162.28125,0,0,0.0,0.0,1.0
1634892162.75,0,0,0.0,0.0,1.0
1634892163.21875,0,0,5.19870767236221,0.0,1.0
1634892163.6875,0,0,0.6002757538378043,0.0,1.0
1634892164.15625,0,0,-0.11000628366909662,0.0,1.0
1634892164.625,0,0,62.97723310056674,0.0,1.0
1634892165.09375,0,0,0.0,0.0,1.0
1634892165.5625,0,0,12.243614852690644,0.0,1.0
1634892166.03125,0,0,17.859056014918202,0.0,1.0
1634892166.5,0,0,5.671186381641122,0.0,1.0
1634892166.96875,0,0,0.0,0.0,1.0
1634892167.4375,0,0,4.719744533300893,0.0,1.0
1634892167.90625,0,0,7.4029279224199165,0.0,1.0
1634892168.375,0,0,0.0,0.0,1.0
1634892168.84375,0,0,7.135576246727013,0.0,1.0
1634892169.3125,0,0,6.348016486756955,0.0,1.0
1634892169.78125,0,0,2.0516572261784884,0.0,1.0
1634892170.25,0,0,5.6470987150285765,0.0,1.0
1634892170.71875,0,0,7.869281102739278,0.0,1.0
1634892171.1875,0,0,2.1949643153192526,0.0,1.0
1634892171.65625,0,0,7.294863092974609,0.0,1.0
1634892172.125,0,0,7.32142572006592,0.0,1.0
1634892172.59375,0,0,0.0,0.0,1.0
1634892173.0625,0,0,0.0,0.0,1.0
1634892173.53125,0,0,7.129196336095722,0.0,1.0
1634892174.0,0,0,3.0741769838133477,0.0,1.0
1634892174.46875,0,0,3.955439346356356,0.0,1.0
1634892174.9375,0,0,5.050497165648271,0.0,1.0
1634892175.40625,0,0,0.0,0.0,1.0
1634892175.875,0,0,11.538870330899675,0.0,1.0
1634892176.34375,0,0,4.86262722894863,0.0,1.0
1634892176.8125,0,0,0.0,0.0,1.0
1634892177.28125,0,0,5.223290577741741,0.0,1.0
1634892177.75,0,0,5.020832400662259,0.0,1.0
1634892178.21875,0,0,0.0,0.0,1.0
1634892178.6875,0,0,5.712240734637075,0.0,1.0
1634892179.15625,0,0,0.0,0.0,1.0
1634892179.625,0,0,0.0,0.0,1.0
1634892180.09375,0,0,6.9762906282884645,0.0,1.0
1634892180.5625,0,0,6.289422444896589,0.0,1.0
1634892181.03125,0,0,0.0,0.0,1.0
1634892181.5,0,0,5.318958703536905,0.0,1.0
1634892181.96875,0,0,9.34087121548997,0.0,1.0
1634892182.4375,0,0,0.0,0.0,1.0
1634892182.90625,0,0,8.864000580818182,0.0,1.0
1634892183.375,0,0,7.512667791148385,0.0,1.0
1634892183.84375,0,0,0.0,0.0,1.0
1634892184.3125,0,0,13.065557745851113,0.0,1.0
1634892184.78125,0,0,10.606917255756928,0.0,1.0
1634892185.25,0,0,0.0,0.0,1.0
1634892185.71875,0,0,-3.3104683742658993,0.0,1.0
1634892186.1875,0,0,140.84589258356615,0.0,1.0
1634892186.65625,0,0,77.15618617320865,0.0,1.0
1634892187.125,0,0,186.86424653797866,0.0,1.0
1634892187.59375,0,0,157.52108000692223,0.0,1.0
1634892188.0625,0,0,0.0,0.0,1.0
1634892188.53125,0,0,34.317036624197954,0.0,1.0
1634892189.0,0,0,8.424090454625704,0.0,1.0
1634892189.46875,0,0,12.667968947887058,0.0,1.0
1634892189.9375,0,0,11.611206936820807,0.0,1.0
1634892190.40625,0,0,9.562044308812725,0.0,1.0
1634892190.875,0,0,12.817779740082162,0.0,1.0
1634892191.34375,0,0,0.0,0.0,1.0
1634892191.8125,0,0,24.933942977692407,0.0,1.0
1634892192.28125,0,0,9.789136016074284,0.0,1.0
1634892192.75,0,0,0.0,0.0,1.0
1634892193.21875,0,0,13.732614900149212,0.0,1.0
1634892193.6875,0,0,13.513774404590087,0.0,1.0
1634892194.15625,0,0,0.0,0.0,1.0
1634892194.625,0,0,11.021330390104263,0.0,1.0
1634892195.09375,0,0,12.52891070033127,0.0,1.0
1634892195.5625,0,0,0.0,0.0,1.0
1634892196.03125,0,0,11.660089525144022,0.0,1.0
1634892196.5,0,0,10.473486262752177,0.0,1.0
1634892196.96875,0,0,0.0,0.0,1.0
1634892197.4375,0,0,12.068186385729302,0.0,1.0
1634892197.90625,0,0,11.421950886366028,0.0,1.0
1634892198.375,0,0,0.0,0.0,1.0
1634892198.84375,0,0,11.799740872825023,0.0,1.0
1634892199.3125,0,0,6.5563919161730615,0.0,1.0
1634892199.78125,0,0,9.106388734361044,0.0,1.0
1634892200.25,0,0,9.735480931144888,0.0,1.0
1634892200.71875,0,0,1.6337977241643828,0.0,1.0
1634892201.1875,0,0,8.821025531053538,0.0,1.0
1634892201.65625,0,0,0.0,0.0,1.0
1634892202.125,0,0,0.0,0.0,1.0
1634892202.59375,0,0,9.771754712858117,0.0,1.0
1634892203.0625,0,0,0.0,0.0,1.0
1634892203.53125,0,0,9.808298731267818,0.0,1.0
1634892204.0,0,0,12.944190530308163,0.0,1.0
1634892204.46875,0,0,0.0,0.0,1.0
1634892204.9375,0,0,14.186163154695267,0.0,1.0
1634892205.40625,0,0,13.113644795080713,0.0,1.0
1634892205.875,0,0,0.0,0.0,1.0
1634892206.34375,0,0,15.006311938740115,0.0,1.0
1634892206.8125,0,0,14.312704131081224,0.0,1.0
1634892207.28125,0,0,0.0,0.0,1.0
1634892207.75,0,0,12.810679697706963,0.0,1.0
1634892208.21875,0,0,13.680482449843732,0.0,1.0
1634892208.6875,0,0,0.0,0.0,1.0
1634892209.15625,0,0,11.734656839128242,0.0,1.0
1634892209.625,0,0,0.0,0.0,1.0
1634892210.09375,0,0,14.048064464461094,0.0,1.0
1634892210.5625,0,0,11.067784116028463,0.0,1.0
1634892211.03125,0,0,0.0,0.0,1.0
1634892211.5,0,0,15.398059242111632,0.0,1.0
1634892211.96875,0,0,15.872728892963304,0.0,1.0
1634892212.4375,0,0,0.0,0.0,1.0
1634892212.90625,0,0,16.871454425126508,0.0,1.0
1634892213.375,0,0,14.333520084288098,0.0,1.0
1634892213.84375,0,0,0.0,0.0,1.0
1634892214.3125,0,0,13.808806211645534,0.0,1.0
1634892214.78125,0,0,16.85939645368613,0.0,1.0
1634892215.25,0,0,0.0,0.0,1.0
1634892215.71875,0,0,12.137121400224821,0.0,1.0
1634892216.1875,0,0,13.277958697503065,0.0,1.0
1634892216.65625,0,0,0.0,0.0,1.0
1634892217.125,0,0,12.797462809320573,0.0,1.0
1634892217.59375,0,0,11.255769181970509,0.0,1.0
1634892218.0625,0,0,10.635106574314003,0.0,1.0
1634892218.53125,0,0,10.500264943850748,0.0,1.0
1634892219.0,0,0,11.01637251951632,0.0,1.0
1634892219.46875,0,0,0.0,0.0,1.0
1634892219.9375,0,0,11.26101432469816,0.0,1.0
1634892220.40625,0,0,10.230204663022144,0.0,1.0
1634892220.875,0,0,0.0,0.0,1.0
1634892221.34375,0,0,11.420098686781689,0.0,1.0
1634892221.8125,0,0,12.754910133216482,0.0,1.0
1634892222.28125,0,0,0.0,0.0,1.0
1634892222.75,0,0,10.499489634222549,0.0,1.0
1634892223.21875,0,0,12.910908216346888,0.0,1.0
1634892223.6875,0,0,9.115340660917216,0.0,1.0
1634892224.15625,0,0,10.565442227004398,0.0,1.0
1634892224.625,0,0,11.93540206584107,0.0,1.0
1634892225.09375,0,0,0.0,0.0,1.0
1634892225.5625,0,0,9.808986334653126,0.0,1.0
1634892226.03125,0,0,8.730020358264227,0.0,1.0
1634892226.5,0,0,8.382572357153142,0.0,1.0
1634892226.96875,0,0,7.836566347136357,0.0,1.0
1634892227.4375,0,0,9.315857297193974,0.0,1.0
1634892227.90625,0,0,0.0,0.0,1.0
1634892228.375,0,0,10.036531625127418,0.0,1.0
1634892228.84375,0,0,15.439098098668923,0.0,1.0
1634892229.3125,0,0,0.0,0.0,1.0
1634892229.78125,0,0,-6.822116476435635,0.0,1.0
1634892230.25,0,0,61.56635601637037,0.0,1.0
1634892230.71875,0,0,0.0,0.0,1.0
1634892231.1875,0,0,22.99528127310773,0.0,1.0
1634892231.65625,0,0,0.0,0.0,1.0
1634892232.125,0,0,0.0,0.0,1.0
1634892232.59375,0,0,8.113562913357004,0.0,1.0
1634892233.0625,0,0,11.95399313721964,0.0,1.0
1634892233.53125,0,0,0.0,0.0,1.0
1634892234.0,0,0,7.223490915985292,0.0,1.0
1634892234.46875,0,0,9.336186278832516,0.0,1.0
1634892234.9375,0,0,0.0,0.0,1.0
1634892235.40625,0,0,11.250067514276559,0.0,1.0
1634892235.875,0,0,8.710646637108667,0.0,1.0
1634892236.34375,0,0,0.0,0.0,1.0
1634892236.8125,0,0,9.591592901300125,0.0,1.0
1634892237.28125,0,0,9.604049605241881,0.0,1.0
1634892237.75,0,0,0.0,0.0,1.0
1634892238.21875,0,0,11.066502896616315,0.0,1.0
1634892238.6875,0,0,12.054166208663506,0.0,1.0
1634892239.15625,0,0,0.0,0.0,1.0
1634892239.625,0,0,9.55682665950257,0.0,1.0
1634892240.09375,0,0,9.1940408118583,0.0,1.0
1634892240.5625,0,0,0.0,0.0,1.0
1634892241.03125,0,0,9.116983110759936,0.0,1.0
1634892241.5,0,0,10.50908532240087,0.0,1.0
1634892241.96875,0,0,0.0,0.0,1.0
1634892242.4375,0,0,7.46610541730126,0.0,1.0
1634892242.90625,0,0,11.618332168765518,0.0,1.0
1634892243.375,0,0,0.0,0.0,1.0
1634892243.84375,0,0,8.337024240912745,0.0,1.0
1634892244.3125,0,0,9.10654811099062,0.0,1.0
1634892244.78125,0,0,0.0,0.0,1.0
1634892245.25,0,0,9.316206266923052,0.0,1.0
1634892245.71875,0,0,9.888477236801165,0.0,1.0
1634892246.1875,0,0,0.0,0.0,1.0
1634892246.65625,0,0,0.0,0.0,1.0
1634892247.125,0,0,21.90835546318908,0.0,1.0
1634892247.59375,0,0,10.343975343048426,0.0,1.0
1634892248.0625,0,0,11.538094276294622,0.0,1.0
1634892248.53125,0,0,20.688338047968667,0.0,1.0
1634892249.0,0,0,0.0,0.0,1.0
1634892249.46875,0,0,8.249747120148951,0.0,1.0
1634892249.9375,0,0,11.992563737464652,0.0,1.0
1634892250.40625,0,0,0.0,0.0,1.0
1634892250.875,0,0,10.758501654391148,0.0,1.0
1634892251.34375,0,0,0.0,0.0,1.0
1634892251.8125,0,0,15.469221086630359,0.0,1.0
1634892252.28125,0,0,12.966469674317963,0.0,1.0
1634892252.75,0,0,11.21784156555369,0.0,1.0
1634892253.21875,0,0,14.569879733694366,0.0,1.0
1634892253.6875,0,0,13.023151729657737,0.0,1.0
1634892254.15625,0,0,0.0,0.0,1.0
1634892254.625,0,0,17.60313242419835,0.0,1.0
1634892255.09375,0,0,36.239626156219146,0.0,1.0
1634892255.5625,0,0,0.0,0.0,1.0
1634892256.03125,0,0,127.15610107338577,0.0,1.0
1634892256.5,0,0,-10.047741627359752,0.0,1.0
1634892256.96875,0,0,0.0,0.0,1.0
1634892257.4375,0,0,130.93691526286727,0.0,1.0
1634892257.90625,0,0,0.0,0.0,1.0
1634892258.375,0,0,39.24359219300692,0.0,1.0
1634892258.84375,0,0,24.809603887373733,0.0,1.0
1634892259.3125,0,0,6.345924784964832,0.0,1.0
1634892259.78125,0,0,5.341878974808694,0.0,1.0
1634892260.25,0,0,17.930306226138434,0.0,1.0
1634892260.71875,0,0,5.3595853642196145,0.0,1.0
1634892261.1875,0,0,0.0,0.0,1.0
1634892261.65625,0,0,17.031487864352897,0.0,1.0
1634892262.125,0,0,0.0,0.0,1.0
1634892262.59375,0,0,14.699808930028787,0.0,1.0
1634892263.0625,0,0,13.935701151536492,0.0,1.0
1634892263.53125,0,0,0.0,0.0,1.0
1634892264.0,0,0,12.935090490701512,0.0,1.0
1634892264.46875,0,0,13.876780681312901,0.0,1.0
1634892264.9375,0,0,0.0,0.0,1.0
1634892265.40625,0,0,10.654876031376613,0.0,1.0
1634892265.875,0,0,10.608058906789696,0.0,1.0
1634892266.34375,0,0,0.0,0.0,1.0
1634892266.8125,0,0,11.018701615100394,0.0,1.0
1634892267.28125,0,0,8.518446453166263,0.0,1.0
1634892267.75,0,0,0.0,0.0,1.0
1634892268.21875,0,0,0.0,0.0,1.0
1634892268.6875,0,0,9.913148928988706,0.0,1.0
1634892269.15625,0,0,0.0,0.0,1.0
1634892269.625,0,0,7.125477475307054,0.0,1.0
1634892270.09375,0,0,11.813395078662513,0.0,1.0
1634892270.5625,0,0,0.0,0.0,1.0
1634892271.03125,0,0,5.361925734343897,0.0,1.0
1634892271.5,0,0,11.337335443654537,0.0,1.0
1634892271.96875,0,0,0.0,0.0,1.0
1634892272.4375,0,0,9.804944340142464,0.0,1.0
1634892272.90625,0,0,12.962057383616946,0.0,1.0
1634892273.375,0,0,0.0,0.0,1.0
1634892273.84375,0,0,8.604669563482602,0.0,1.0
1634892274.3125,0,0,15.016612802842829,0.0,1.0
1634892274.78125,0,0,0.0,0.0,1.0
1634892275.25,0,0,8.36880152590758,0.0,1.0
1634892275.71875,0,0,10.719301397405522,0.0,1.0
1634892276.1875,0,0,41.87794494645249,0.0,1.0
1634892276.65625,0,0,0.0,0.0,1.0
1634892277.125,0,0,61.34280409364344,0.0,1.0
1634892277.59375,0,0,5.372243899274106,0.0,1.0
1634892278.0625,0,0,0.0,0.0,1.0
1634892278.53125,0,0,8.628254407340528,0.0,1.0
1634892279.0,0,0,9.80275834572338,0.0,1.0
1634892279.46875,0,0,3.351480270042402,0.0,1.0
1634892279.9375,0,0,9.34025539331087,0.0,1.0
1634892280.40625,0,0,7.094905200619205,0.0,1.0
1634892280.875,0,0,7.248324353088096,0.0,1.0
1634892281.34375,0,0,5.707116574432241,0.0,1.0
1634892281.8125,0,0,8.108144491939079,0.0,1.0
1634892282.28125,0,0,0.0,0.0,1.0
1634892282.75,0,0,5.8009093701368535,0.0,1.0
1634892283.21875,0,0,7.608012823316539,0.0,1.0
1634892283.6875,0,0,0.0,0.0,1.0
1634892284.15625,0,0,8.627300686639588,0.0,1.0
1634892284.625,0,0,7.794481030978107,0.0,1.0
1634892285.09375,0,0,7.646672701783981,0.0,1.0
1634892285.5625,0,0,9.173624444933141,0.0,1.0
1634892286.03125,0,0,9.7424112069153,0.0,1.0
1634892286.5,0,0,9.184514912003307,0.0,1.0
1634892286.96875,0,0,11.280274217171378,0.0,1.0
1634892287.4375,0,0,0.0,0.0,1.0
1634892287.90625,0,0,13.491654927126635,0.0,1.0
1634892288.375,0,0,13.29687922385353,0.0,1.0
1634892288.84375,0,0,9.79515727710576,0.0,1.0
1634892289.3125,0,0,10.743178544762047,0.0,1.0
1634892289.78125,0,0,13.060664782806585,0.0,1.0
1634892290.25,0,0,9.944137406708208,0.0,1.0
1634892290.71875,0,0,14.105137582238232,0.0,1.0
1634892291.1875,0,0,13.152422774845753,0.0,1.0
1634892291.65625,0,0,13.29730797570592,0.0,1.0
1634892292.125,0,0,14.460290993599722,0.0,1.0
1634892292.59375,0,0,13.293392468063827,0.0,1.0
1634892293.0625,0,0,0.0,0.0,1.0
1634892293.53125,0,0,14.862627890499073,0.0,1.0
1634892294.0,0,0,10.96048386825816,0.0,1.0
1634892294.46875,0,0,9.67581818469775,0.0,1.0
1634892294.9375,0,0,10.525149845197065,0.0,1.0
1634892295.40625,0,0,0.0,0.0,1.0
1634892295.875,0,0,10.702926255498792,0.0,1.0
1634892296.34375,0,0,9.90127427560018,0.0,1.0
1634892296.8125,0,0,10.420034199434363,0.0,1.0
1634892297.28125,0,0,9.962942088185612,0.0,1.0
1634892297.75,0,0,0.0,0.0,1.0
1634892298.21875,0,0,11.315403028442422,0.0,1.0
1634892298.6875,0,0,0.0,0.0,1.0
1634892299.15625,0,0,0.0,0.0,1.0
1634892299.625,0,0,10.70498800781094,0.0,1.0
1634892300.09375,0,0,12.863047456956727,0.0,1.0
1634892300.5625,0,0,10.091848916833946,0.0,1.0
1634892301.03125,0,0,12.086389895644142,0.0,1.0
1634892301.5,0,0,10.805706187234101,0.0,1.0
1634892301.96875,0,0,11.78755773441864,0.0,1.0
1634892302.4375,0,0,14.50028347436711,0.0,1.0
1634892302.90625,0,0,11.734827267408024,0.0,1.0
1634892303.375,0,0,0.0,0.0,1.0
1634892303.84375,0,0,10.24505648467947,0.0,1.0
1634892304.3125,0,0,0.0,0.0,1.0
1634892304.78125,0,0,0.0,0.0,1.0
1634892305.25,0,0,9.249006374819396,0.0,1.0
1634892305.71875,0,0,0.0,0.0,1.0
1634892306.1875,0,0,10.140532135891942,0.0,1.0
1634892306.65625,0,0,10.54902808768537,0.0,1.0
1634892307.125,0,0,0.0,0.0,1.0
1634892307.59375,0,0,8.02034905032228,0.0,1.0
1634892308.0625,0,0,9.150593817178097,0.0,1.0
1634892308.53125,0,0,8.029810426458889,0.0,1.0
1634892309.0,0,0,9.595389651313159,0.0,1.0
1634892309.46875,0,0,9.663801133633536,0.0,1.0
1634892309.9375,0,0,10.113887639830123,0.0,1.0
1634892310.40625,0,0,13.332020281599245,0.0,1.0
1634892310.875,0,0,20.48178622712343,0.0,1.0
1634892311.34375,0,0,0.0,0.0,1.0
1634892311.8125,0,0,19.903452786784477,0.0,1.0
1634892312.28125,0,0,19.72860935303046,0.0,1.0
1634892312.75,0,0,1.8449320255623196,0.0,1.0
1634892313.21875,0,0,9.028185544079388,0.0,1.0
1634892313.6875,0,0,52.54399179264552,0.0,1.0
1634892314.15625,0,0,0.0,0.0,1.0
1634892314.625,0,0,28.855472084694902,0.0,1.0
1634892315.09375,0,0,18.301645305276413,0.0,1.0
1634892315.5625,0,0,0.0,0.0,1.0
1634892316.03125,0,0,14.20307713586826,0.0,1.0
1634892316.5,0,0,15.233691183356418,0.0,1.0
1634892316.96875,0,0,0.0,0.0,1.0
1634892317.4375,0,0,13.054015885800329,0.0,1.0
1634892317.90625,0,0,0.0,0.0,1.0
1634892318.375,0,0,17.67661022385041,0.0,1.0
1634892318.84375,0,0,13.685809992262001,0.0,1.0
1634892319.3125,0,0,0.0,0.0,1.0
1634892319.78125,0,0,13.281466308126957,0.0,1.0
1634892320.25,0,0,12.710232220476405,0.0,1.0
1634892320.71875,0,0,0.0,0.0,1.0
1634892321.1875,0,0,14.874896819781451,0.0,1.0
1634892321.65625,0,0,12.358125129518886,0.0,1.0
1634892322.125,0,0,10.314955817620152,0.0,1.0
1634892322.59375,0,0,12.087088617483184,0.0,1.0
1634892323.0625,0,0,13.565949332542793,0.0,1.0
1634892323.53125,0,0,10.606022784481208,0.0,1.0
1634892324.0,0,0,13.090257248844814,0.0,1.0
1634892324.46875,0,0,14.622984887290455,0.0,1.0
1634892324.9375,0,0,0.0,0.0,1.0
1634892325.40625,0,0,13.261047685603721,0.0,1.0
1634892325.875,0,0,0.0,0.0,1.0
1634892326.34375,0,0,14.396919950484897,0.0,1.0
1634892326.8125,0,0,14.136317340621728,0.0,1.0
1634892327.28125,0,0,0.0,0.0,1.0
1634892327.75,0,0,14.874288181646069,0.0,1.0
1634892328.21875,0,0,13.185905013866394,0.0,1.0
1634892328.6875,0,0,0.0,0.0,1.0
1634892329.15625,0,0,14.310898296440284,0.0,1.0
1634892329.625,0,0,14.464635076033964,0.0,1.0
1634892330.09375,0,0,0.0,0.0,1.0
1634892330.5625,0,0,15.274036065403415,0.0,1.0
1634892331.03125,0,0,16.06994650661587,0.0,1.0
1634892331.5,0,0,0.0,0.0,1.0
1634892331.96875,0,0,14.267111885816945,0.0,1.0
1634892332.4375,0,0,0.0,0.0,1.0
1634892332.90625,0,0,14.985492462121329,0.0,1.0
1634892333.375,0,0,16.355666607321805,0.0,1.0
1634892333.84375,0,0,0.0,0.0,1.0
1634892334.3125,0,0,14.385952069288003,0.0,1.0
1634892334.78125,0,0,14.133713597032083,0.0,1.0
1634892335.25,0,0,0.0,0.0,1.0
1634892335.71875,0,0,14.285615000060242,0.0,1.0
1634892336.1875,0,0,14.30066971780906,0.0,1.0
1634892336.65625,0,0,0.0,0.0,1.0
1634892337.125,0,0,14.636962896361702,0.0,1.0
1634892337.59375,0,0,15.699859752022027,0.0,1.0
1634892338.0625,0,0,0.0,0.0,1.0
1634892338.53125,0,0,12.1690746140526,0.0,1.0
1634892339.0,0,0,17.782399496458183,0.0,1.0
1634892339.46875,0,0,0.0,0.0,1.0
1634892339.9375,0,0,15.074089300995313,0.0,1.0
1634892340.40625,0,0,0.0,0.0,1.0
1634892340.875,0,0,13.869674287242328,0.0,1.0
1634892341.34375,0,0,14.055179182444952,0.0,1.0
1634892341.8125,0,0,0.0,0.0,1.0
1634892342.28125,0,0,18.0932301398442,0.0,1.0
1634892342.75,0,0,16.770602983325244,0.0,1.0
1634892343.21875,0,0,0.0,0.0,1.0
1634892343.6875,0,0,15.761649705446018,0.0,1.0
1634892344.15625,0,0,0.0,0.0,1.0
1634892344.625,0,0,23.1515918089942,0.0,1.0
1634892345.09375,0,0,17.85130589329951,0.0,1.0
1634892345.5625,0,0,0.0,0.0,1.0
1634892346.03125,0,0,16.241432555077417,0.0,1.0
1634892346.5,0,0,18.777333075542217,0.0,1.0
1634892346.96875,0,0,0.0,0.0,1.0
1634892347.4375,0,0,18.250729813867075,0.0,1.0
1634892347.90625,0,0,12.636504938811546,0.0,1.0
1634892348.375,0,0,16.610590253355237,0.0,1.0
1634892348.84375,0,0,15.337592536180624,0.0,1.0
1634892349.3125,0,0,15.913429323622328,0.0,1.0
1634892349.78125,0,0,0.0,0.0,1.0
1634892350.25,0,0,16.25924180683347,0.0,1.0
1634892350.71875,0,0,0.0,0.0,1.0
1634892351.1875,0,0,0.0,0.0,1.0
1634892351.65625,0,0,13.629645058160863,0.0,1.0
1634892352.125,0,0,0.0,0.0,1.0
1634892352.59375,0,0,16.428540698546332,0.0,1.0
1634892353.0625,0,0,15.23184357345438,0.0,1.0
1634892353.53125,0,0,0.0,0.0,1.0
1634892354.0,0,0,14.15208753858126,0.0,1.0
1634892354.46875,0,0,14.02266422735799,0.0,1.0
1634892354.9375,0,0,10.363838643219674,0.0,1.0
1634892355.40625,0,0,12.21360576477084,0.0,1.0
1634892355.875,0,0,0.0,0.0,1.0
1634892356.34375,0,0,15.180202988849484,0.0,1.0
1634892356.8125,0,0,0.0,0.0,1.0
1634892357.28125,0,0,0.0,0.0,1.0
1634892357.75,0,0,11.976870504431002,0.0,1.0
1634892358.21875,0,0,0.0,0.0,1.0
1634892358.6875,0,0,0.0,0.0,1.0
1634892359.15625,0,0,18.06509663001338,0.0,1.0
1634892359.625,0,0,0.0,0.0,1.0
1634892360.09375,0,0,15.555077945185134,0.0,1.0
1634892360.5625,0,0,15.736817787548459,0.0,1.0
1634892361.03125,0,0,16.352495529046053,0.0,1.0
1634892361.5,0,0,0.0,0.0,1.0
1634892361.96875,0,0,16.533177336436566,0.0,1.0
1634892362.4375,0,0,0.0,0.0,1.0
1634892362.90625,0,0,15.626886813259029,0.0,1.0
1634892363.375,0,0,14.926120415569777,0.0,1.0
1634892363.84375,0,0,0.0,0.0,1.0
1634892364.3125,0,0,14.522448409054338,0.0,1.0
1634892364.78125,0,0,13.351255228443145,0.0,1.0
1634892365.25,0,0,0.0,0.0,1.0
1634892365.71875,0,0,22.140696149957897,0.0,1.0
1634892366.1875,0,0,27.093790837637425,0.0,1.0
1634892366.65625,0,0,0.0,0.0,1.0
1634892367.125,0,0,122.21577275872747,0.0,1.0
1634892367.59375,0,0,-0.24983559764991187,0.0,1.0
1634892368.0625,0,0,9.56027056017767,0.0,1.0
1634892368.53125,0,0,8.027822093130364,0.0,1.0
1634892369.0,0,0,9.442670648455694,0.0,1.0
1634892369.46875,0,0,5.548267573882313,0.0,1.0
1634892369.9375,0,0,2.9420427186652285,0.0,1.0
1634892370.40625,0,0,8.059461013474358,0.0,1.0
1634892370.875,0,0,4.2562525792763415,0.0,1.0
1634892371.34375,0,0,4.181353331106936,0.0,1.0
1634892371.8125,0,0,6.49625253407735,0.0,1.0
1634892372.28125,0,0,8.841999466463722,0.0,1.0
1634892372.75,0,0,6.574823459555921,0.0,1.0
1634892373.21875,0,0,7.230604084585108,0.0,1.0
1634892373.6875,0,0,8.661390032789432,0.0,1.0
1634892374.15625,0,0,7.489695597197678,0.0,1.0
1634892374.625,0,0,7.930042549475605,0.0,1.0
1634892375.09375,0,0,0.0,0.0,1.0
1634892375.5625,0,0,9.34597739824242,0.0,1.0
1634892376.03125,0,0,12.20911458758923,0.0,1.0
1634892376.5,0,0,0.0,0.0,1.0
1634892376.96875,0,0,10.517552366564978,0.0,1.0
1634892377.4375,0,0,9.000585584498328,0.0,1.0
1634892377.90625,0,0,8.894502873901097,0.0,1.0
1634892378.375,0,0,7.79523472753789,0.0,1.0
1634892378.84375,0,0,0.0,0.0,1.0
1634892379.3125,0,0,7.693653720509667,0.0,1.0
1634892379.78125,0,0,11.366554292244457,0.0,1.0
1634892380.25,0,0,0.0,0.0,1.0
1634892380.71875,0,0,8.27125808545027,0.0,1.0
1634892381.1875,0,0,11.933706025430888,0.0,1.0
1634892381.65625,0,0,0.0,0.0,1.0
1634892382.125,0,0,9.149108544661914,0.0,1.0
1634892382.59375,0,0,8.628456170147503,0.0,1.0
1634892383.0625,0,0,8.903029374429517,0.0,1.0
1634892383.53125,0,0,20.591460284418424,0.0,1.0
1634892384.0,0,0,0.0,0.0,1.0
1634892384.46875,0,0,9.407912228102424,0.0,1.0
1634892384.9375,0,0,9.057738693918278,0.0,1.0
1634892385.40625,0,0,22.57368512511477,0.0,1.0
1634892385.875,0,0,0.0,0.0,1.0
1634892386.34375,0,0,10.14784424174979,0.0,1.0
1634892386.8125,0,0,7.297180486614513,0.0,1.0
1634892387.28125,0,0,16.006343801348766,0.0,1.0
1634892387.75,0,0,6.3570717731209765,0.0,1.0
1634892388.21875,0,0,0.0,0.0,1.0
1634892388.6875,0,0,9.722928168600534,0.0,1.0
1634892389.15625,0,0,8.730718787641608,0.0,1.0
1634892389.625,0,0,10.89287348497181,0.0,1.0
1634892390.09375,0,0,8.08395296166589,0.0,1.0
1634892390.5625,0,0,10.93247575138305,0.0,1.0
1634892391.03125,0,0,0.0,0.0,1.0
1634892391.5,0,0,7.6769868862171355,0.0,1.0
1634892391.96875,0,0,9.187838822068152,0.0,1.0
1634892392.4375,0,0,0.0,0.0,1.0
1634892392.90625,0,0,8.438648590586345,0.0,1.0
1634892393.375,0,0,0.0,0.0,1.0
1634892393.84375,0,0,15.335567687609386,0.0,1.0
1634892394.3125,0,0,7.661547262473019,0.0,1.0
1634892394.78125,0,0,0.0,0.0,1.0
1634892395.25,0,0,5.810194991337622,0.0,1.0
1634892395.71875,0,0,9.799672089054294,0.0,1.0
1634892396.1875,0,0,0.0,0.0,1.0
1634892396.65625,0,0,7.4242900549792274,0.0,1.0
1634892397.125,0,0,3.9804866221297126,0.0,1.0
1634892397.59375,0,0,15.90714137683141,0.0,1.0
1634892398.0625,0,0,9.411261927794335,0.0,1.0
1634892398.53125,0,0,10.055124095077101,0.0,1.0
1634892399.0,0,0,0.0,0.0,1.0
1634892399.46875,0,0,9.103272338204187,0.0,1.0
1634892399.9375,0,0,11.06947212162562,0.0,1.0
1634892400.40625,0,0,0.0,0.0,1.0
1634892400.875,0,0,13.8367861440899,0.0,1.0
1634892401.34375,0,0,10.476368130634098,0.0,1.0
1634892401.8125,0,0,0.0,0.0,1.0
1634892402.28125,0,0,10.016531510065018,0.0,1.0
1634892402.75,0,0,0.0,0.0,1.0
1634892403.21875,0,0,8.13399833823305,0.0,1.0
1634892403.6875,0,0,11.03490036521095,0.0,1.0
1634892404.15625,0,0,0.0,0.0,1.0
1634892404.625,0,0,7.788270861648528,0.0,1.0
1634892405.09375,0,0,6.7065137348898505,0.0,1.0
1634892405.5625,0,0,0.8859251753589126,0.0,1.0
1634892406.03125,0,0,14.827800890484756,0.0,1.0
1634892406.5,0,0,7.261247893583041,0.0,1.0
1634892406.96875,0,0,0.0,0.0,1.0
1634892407.4375,0,0,9.671090508684015,0.0,1.0
1634892407.90625,0,0,7.898583645436678,0.0,1.0
1634892408.375,0,0,9.658741989704742,0.0,1.0
1634892408.84375,0,0,0.0,0.0,1.0
1634892409.3125,0,0,11.93222144267616,0.0,1.0
1634892409.78125,0,0,24.095458544936758,0.0,1.0
1634892410.25,0,0,0.0,0.0,1.0
1634892410.71875,0,0,10.574548083374632,0.0,1.0
1634892411.1875,0,0,11.339399120680138,0.0,1.0
1634892411.65625,0,0,0.0,0.0,1.0
1634892412.125,0,0,15.038311822050611,0.0,1.0
1634892412.59375,0,0,8.449734755878632,0.0,1.0
1634892413.0625,0,0,0.0,0.0,1.0
1634892413.53125,0,0,9.218090899099584,0.0,1.0
1634892414.0,0,0,5.647764270143747,0.0,1.0
1634892414.46875,0,0,13.795511653735094,0.0,1.0
1634892414.9375,0,0,8.428314446125817,0.0,1.0
1634892415.40625,0,0,9.948074431994105,0.0,1.0
1634892415.875,0,0,12.467787823838657,0.0,1.0
1634892416.34375,0,0,0.0,0.0,1.0
1634892416.8125,0,0,13.721769928726454,0.0,1.0
1634892417.28125,0,0,0.0,0.0,1.0
1634892417.75,0,0,16.464571510780722,0.0,1.0
1634892418.21875,0,0,11.847570265378593,0.0,1.0
1634892418.6875,0,0,9.763142311738878,0.0,1.0
1634892419.15625,0,0,0.0,0.0,1.0
1634892419.625,0,0,10.35470508933165,0.0,1.0
1634892420.09375,0,0,12.044133168667662,0.0,1.0
1634892420.5625,0,0,0.0,0.0,1.0
1634892421.03125,0,0,7.523679651203956,0.0,1.0
1634892421.5,0,0,0.0,0.0,1.0
1634892421.96875,0,0,15.130148419824696,0.0,1.0
1634892422.4375,0,0,2.606438848726555,0.0,1.0
1634892422.90625,0,0,20.635395000522713,0.0,1.0
1634892423.375,0,0,17.26939709520331,0.0,1.0
1634892423.84375,0,0,3.030662773269487,0.0,1.0
1634892424.3125,0,0,16.755877232649187,0.0,1.0
1634892424.78125,0,0,26.98103527532928,0.0,1.0
1634892425.25,0,0,0.0,0.0,1.0
1634892425.71875,0,0,24.288557864560982,0.0,1.0
1634892426.1875,0,0,13.955098708205787,0.0,1.0
1634892426.65625,0,0,16.50659218655456,0.0,1.0
1634892427.125,0,0,0.0,0.0,1.0
1634892427.59375,0,0,14.949280473759474,0.0,1.0
1634892428.0625,0,0,11.262997201023344,0.0,1.0
1634892428.53125,0,0,0.0,0.0,1.0
1634892429.0,0,0,15.26056119895729,0.0,1.0
1634892429.46875,0,0,9.297099335385342,0.0,1.0
1634892429.9375,0,0,0.0,0.0,1.0
1634892430.40625,0,0,9.71128254533286,0.0,1.0
1634892430.875,0,0,11.356277362012678,0.0,1.0
1634892431.34375,0,0,0.0,0.0,1.0
1634892431.8125,0,0,0.0,0.0,1.0
1634892432.28125,0,0,12.914146935364549,0.0,1.0
1634892432.75,0,0,12.937991646166001,0.0,1.0
1634892433.21875,0,0,0.0,0.0,1.0
1634892433.6875,0,0,15.876712838621389,0.0,1.0
1634892434.15625,0,0,14.269429526425673,0.0,1.0
1634892434.625,0,0,0.0,0.0,1.0
1634892435.09375,0,0,14.625138236646904,0.0,1.0
1634892435.5625,0,0,20.5919420020095,0.0,1.0
1634892436.03125,0,0,9.597413628786502,0.0,1.0
1634892436.5,0,0,0.0,0.0,1.0
1634892436.96875,0,0,16.359875248042798,0.0,1.0
1634892437.4375,0,0,17.812567127533015,0.0,1.0
1634892437.90625,0,0,0.0,0.0,1.0
1634892438.375,0,0,11.328103736972992,0.0,1.0
1634892438.84375,0,0,0.0,0.0,1.0
1634892439.3125,0,0,18.985674518428425,0.0,1.0
1634892439.78125,0,0,-1.407244096633713,0.0,1.0
1634892440.25,0,0,23.993541872113195,0.0,1.0
1634892440.71875,0,0,89.28894144513013,0.0,1.0
1634892441.1875,0,0,57.77261656921611,0.0,1.0
1634892441.65625,0,0,-25.092210590439166,0.0,1.0
1634892442.125,0,0,85.784214187492,0.0,1.0
1634892442.59375,0,0,90.37465391147417,0.0,1.0
1634892443.0625,0,0,-83.2113342006769,0.0,1.0
1634892443.53125,0,0,63.61465470198925,0.0,1.0
1634892444.0,0,0,0.0,0.0,1.0
1634892444.46875,0,0,12.055075668260029,0.0,1.0
1634892444.9375,0,0,0.0,0.0,1.0
1634892445.40625,0,0,15.63745382543317,0.0,1.0
1634892445.875,0,0,0.0,0.0,1.0
1634892446.34375,0,0,6.184157669160733,0.0,1.0
1634892446.8125,0,0,12.76535339391841,0.0,1.0
1634892447.28125,0,0,10.215568288022691,0.0,1.0
1634892447.75,0,0,0.0,0.0,1.0
1634892448.21875,0,0,13.34730464976499,0.0,1.0
1634892448.6875,0,0,0.0,0.0,1.0
1634892449.15625,0,0,13.048770401094469,0.0,1.0
1634892449.625,0,0,0.0,0.0,1.0
1634892450.09375,0,0,13.483361319293808,0.0,1.0
1634892450.5625,0,0,7.983075210456436,0.0,1.0
1634892451.03125,0,0,0.0,0.0,1.0
1634892451.5,0,0,17.094803653608245,0.0,1.0
1634892451.96875,0,0,1.479060162213157,0.0,1.0
1634892452.4375,0,0,12.995344070130276,0.0,1.0
1634892452.90625,0,0,19.415331470290486,0.0,1.0
1634892453.375,0,0,11.890202118613809,0.0,1.0
1634892453.84375,0,0,0.0,0.0,1.0
1634892454.3125,0,0,8.711302014023746,0.0,1.0
1634892454.78125,0,0,0.0,0.0,1.0
1634892455.25,0,0,0.0,0.0,1.0
1634892455.71875,0,0,10.44122042405467,0.0,1.0
1634892456.1875,0,0,0.0,0.0,1.0
1634892456.65625,0,0,9.272012580173701,0.0,1.0
1634892457.125,0,0,12.860261304477989,0.0,1.0
1634892457.59375,0,0,0.0,0.0,1.0
1634892458.0625,0,0,11.858898759041157,0.0,1.0
1634892458.53125,0,0,0.0,0.0,1.0
1634892459.0,0,0,12.107383909798717,0.0,1.0
1634892459.46875,0,0,19.54949626030543,0.0,1.0
1634892459.9375,0,0,0.0,0.0,1.0
1634892460.40625,0,0,13.195372348108595,0.0,1.0
1634892460.875,0,0,11.948124759933494,0.0,1.0
1634892461.34375,0,0,0.0,0.0,1.0
1634892461.8125,0,0,12.480745451353819,0.0,1.0
1634892462.28125,0,0,13.916062586789247,0.0,1.0
1634892462.75,0,0,0.0,0.0,1.0
1634892463.21875,0,0,12.58281612233014,0.0,1.0
1634892463.6875,0,0,0.0,0.0,1.0
1634892464.15625,0,0,13.352150388287177,0.0,1.0
1634892464.625,0,0,14.805794845537514,0.0,1.0
1634892465.09375,0,0,0.0,0.0,1.0
1634892465.5625,0,0,11.06538187525698,0.0,1.0
1634892466.03125,0,0,0.0,0.0,1.0
1634892466.5,0,0,0.0,0.0,1.0
1634892466.96875,0,0,25.553068715696075,0.0,1.0
1634892467.4375,0,0,0.0,0.0,1.0
1634892467.90625,0,0,8.650293783312057,0.0,1.0
1634892468.375,0,0,17.831073210590276,0.0,1.0
1634892468.84375,0,0,0.0,0.0,1.0
1634892469.3125,0,0,12.229020458395237,0.0,1.0
1634892469.78125,0,0,11.7519529430076,0.0,1.0
1634892470.25,0,0,0.0,0.0,1.0
1634892470.71875,0,0,16.10437340559425,0.0,1.0
1634892471.1875,0,0,0.0,0.0,1.0
1634892471.65625,0,0,15.69469080677778,0.0,1.0
1634892472.125,0,0,12.155867824138369,0.0,1.0
1634892472.59375,0,0,0.0,0.0,1.0
1634892473.0625,0,0,15.710349206210147,0.0,1.0
1634892473.53125,0,0,13.33858957878248,0.0,1.0
1634892474.0,0,0,0.0,0.0,1.0
1634892474.46875,0,0,16.409828856593794,0.0,1.0
1634892474.9375,0,0,11.70364388548135,0.0,1.0
1634892475.40625,0,0,5.861967081167647,0.0,1.0
1634892475.875,0,0,15.447970585862247,0.0,1.0
1634892476.34375,0,0,0.0,0.0,1.0
1634892476.8125,0,0,13.359797465752333,0.0,1.0
1634892477.28125,0,0,16.4028448158542,0.0,1.0
1634892477.75,0,0,0.0,0.0,1.0
1634892478.21875,0,0,11.478204871738084,0.0,1.0
1634892478.6875,0,0,15.345732013475631,0.0,1.0
1634892479.15625,0,0,0.0,0.0,1.0
1634892479.625,0,0,15.254924431320346,0.0,1.0
1634892480.09375,0,0,0.0,0.0,1.0
1634892480.5625,0,0,14.569242833522685,0.0,1.0
1634892481.03125,0,0,11.698064311367208,0.0,1.0
1634892481.5,0,0,8.239790369859014,0.0,1.0
1634892481.96875,0,0,11.778430699290546,0.0,1.0
1634892482.4375,0,0,13.929801927177182,0.0,1.0
1634892482.90625,0,0,0.0,0.0,1.0
1634892483.375,0,0,19.28278729612695,0.0,1.0
1634892483.84375,0,0,12.614028874832364,0.0,1.0
1634892484.3125,0,0,0.0,0.0,1.0
1634892484.78125,0,0,12.031435175646386,0.0,1.0
1634892485.25,0,0,0.0,0.0,1.0
1634892485.71875,0,0,10.48608968961384,0.0,1.0
1634892486.1875,0,0,11.873123801046004,0.0,1.0
1634892486.65625,0,0,0.0,0.0,1.0
1634892487.125,0,0,11.893182868572717,0.0,1.0
1634892487.59375,0,0,7.8253345529150735,0.0,1.0
1634892488.0625,0,0,-0.1060326824124821,0.0,1.0
1634892488.53125,0,0,10.272693677356202,0.0,1.0
1634892489.0,0,0,11.792438434843756,0.0,1.0
1634892489.46875,0,0,0.0,0.0,1.0
1634892489.9375,0,0,5.394454641242791,0.0,1.0
1634892490.40625,0,0,20.863926386942477,0.0,1.0
1634892490.875,0,0,10.907170936723986,0.0,1.0
1634892491.34375,0,0,0.0,0.0,1.0
1634892491.8125,0,0,13.21842756248672,0.0,1.0
1634892492.28125,0,0,11.740703904929703,0.0,1.0
1634892492.75,0,0,0.0,0.0,1.0
1634892493.21875,0,0,8.798145285285399,0.0,1.0
1634892493.6875,0,0,5.370055235431361,0.0,1.0
1634892494.15625,0,0,4.941254819234397,0.0,1.0
1634892494.625,0,0,8.867878294829715,0.0,1.0
1634892495.09375,0,0,0.0,0.0,1.0
1634892495.5625,0,0,7.368343300458907,0.0,1.0
1634892496.03125,0,0,0.0,0.0,1.0
1634892496.5,0,0,7.670389182734799,0.0,1.0
1634892496.96875,0,0,5.923351602015417,0.0,1.0
1634892497.4375,0,0,0.0,0.0,1.0
1634892497.90625,0,0,6.0430912506944345,0.0,1.0
1634892498.375,0,0,8.026192682183574,0.0,1.0
1634892498.84375,0,0,0.0,0.0,1.0
1634892499.3125,0,0,7.775192479121411,0.0,1.0
1634892499.78125,0,0,0.0,0.0,1.0
1634892500.25,0,0,9.788624957615635,0.0,1.0
1634892500.71875,0,0,9.575163978201097,0.0,1.0
1634892501.1875,0,0,8.530913103133296,0.0,1.0
1634892501.65625,0,0,10.417293014209886,0.0,1.0
1634892502.125,0,0,0.0,0.0,1.0
1634892502.59375,0,0,9.276273939738061,0.0,1.0
1634892503.0625,0,0,10.447267448454669,0.0,1.0
1634892503.53125,0,0,6.341467885546727,0.0,1.0
1634892504.0,0,0,11.011890710233452,0.0,1.0
1634892504.46875,0,0,-1.802538118975735,0.0,1.0
1634892504.9375,0,0,10.43802955984775,0.0,1.0
1634892505.40625,0,0,0.0,0.0,1.0
1634892505.875,0,0,10.015680258777529,0.0,1.0
1634892506.34375,0,0,14.535083667290184,0.0,1.0
1634892506.8125,0,0,0.0,0.0,1.0
1634892507.28125,0,0,12.704900328937823,0.0,1.0
1634892507.75,0,0,0.0,0.0,1.0
1634892508.21875,0,0,7.028046245399378,0.0,1.0
1634892508.6875,0,0,7.87557530993734,0.0,1.0
1634892509.15625,0,0,0.0,0.0,1.0
1634892509.625,0,0,10.523871597647007,0.0,1.0
1634892510.09375,0,0,7.124301584659768,0.0,1.0
1634892510.5625,0,0,4.938191731784041,0.0,1.0
1634892511.03125,0,0,8.958528550577205,0.0,1.0
1634892511.5,0,0,0.0,0.0,1.0
1634892511.96875,0,0,8.787930495974132,0.0,1.0
1634892512.4375,0,0,11.92124541122891,0.0,1.0
1634892512.90625,0,0,4.850652921388882,0.0,1.0
1634892513.375,0,0,8.097403387744748,0.0,1.0
1634892513.84375,0,0,0.0,0.0,1.0
1634892514.3125,0,0,6.734439673451114,0.0,1.0
1634892514.78125,0,0,9.916701355139189,0.0,1.0
1634892515.25,0,0,0.0,0.0,1.0
1634892515.71875,0,0,10.670654755210167,0.0,1.0
1634892516.1875,0,0,8.976136118318662,0.0,1.0
1634892516.65625,0,0,8.626152835308623,0.0,1.0
1634892517.125,0,0,8.907476775378504,0.0,1.0
1634892517.59375,0,0,0.0,0.0,1.0
1634892518.0625,0,0,8.704537541929787,0.0,1.0
1634892518.53125,0,0,18.085108416146575,0.0,1.0
1634892519.0,0,0,0.0,0.0,1.0
1634892519.46875,0,0,13.890584633031397,0.0,1.0
1634892519.9375,0,0,10.212063246850539,0.0,1.0
1634892520.40625,0,0,0.0,0.0,1.0
1634892520.875,0,0,11.366307869344192,0.0,1.0
1634892521.34375,0,0,0.0,0.0,1.0
1634892521.8125,0,0,10.921095287579341,0.0,1.0
1634892522.28125,0,0,17.438135920842353,0.0,1.0
1634892522.75,0,0,0.0,0.0,1.0
1634892523.21875,0,0,9.722932641874957,0.0,1.0
1634892523.6875,0,0,0.0,0.0,1.0
1634892524.15625,0,0,9.967850079542227,0.0,1.0
1634892524.625,0,0,10.743602498432605,0.0,1.0
1634892525.09375,0,0,0.0,0.0,1.0
1634892525.5625,0,0,11.292539116389921,0.0,1.0
1634892526.03125,0,0,8.792327328232865,0.0,1.0
1634892526.5,0,0,9.540802680559253,0.0,1.0
1634892526.96875,0,0,9.072074460795983,0.0,1.0
1634892527.4375,0,0,0.0,0.0,1.0
1634892527.90625,0,0,12.513710945231338,0.0,1.0
1634892528.375,0,0,14.081521888955242,0.0,1.0
1634892528.84375,0,0,0.0,0.0,1.0
1634892529.3125,0,0,11.432324583272026,0.0,1.0
1634892529.78125,0,0,0.0,0.0,1.0
1634892530.25,0,0,9.525831703283105,0.0,1.0
1634892530.71875,0,0,9.83151306945759,0.0,1.0
1634892531.1875,0,0,0.0,0.0,1.0
1634892531.65625,0,0,8.780369637786741,0.0,1.0
1634892532.125,0,0,5.305166639235844,0.0,1.0
1634892532.59375,0,0,7.388233668378118,0.0,1.0
1634892533.0625,0,0,10.203813377485435,0.0,1.0
1634892533.53125,0,0,0.0,0.0,1.0
1634892534.0,0,0,0.0,0.0,1.0
1634892534.46875,0,0,9.742570341540969,0.0,1.0
1634892534.9375,0,0,0.0,0.0,1.0
1634892535.40625,0,0,7.1140856245035415,0.0,1.0
1634892535.875,0,0,7.569237574675156,0.0,1.0
1634892536.34375,0,0,0.0,0.0,1.0
1634892536.8125,0,0,9.536284975140898,0.0,1.0
1634892537.28125,0,0,7.415288320017689,0.0,1.0
1634892537.75,0,0,0.0,0.0,1.0
1634892538.21875,0,0,7.438936875294998,0.0,1.0
1634892538.6875,0,0,0.0,0.0,1.0
1634892539.15625,0,0,8.42985419818061,0.0,1.0
1634892539.625,0,0,9.783308707422583,0.0,1.0
1634892540.09375,0,0,0.0,0.0,1.0
1634892540.5625,0,0,12.761731024113153,0.0,1.0
1634892541.03125,0,0,11.77787637531721,0.0,1.0
1634892541.5,0,0,0.0,0.0,1.0
1634892541.96875,0,0,12.06472588246576,0.0,1.0
1634892542.4375,0,0,0.0,0.0,1.0
1634892542.90625,0,0,20.06354149759135,0.0,1.0
1634892543.375,0,0,9.81871684010375,0.0,1.0
1634892543.84375,0,0,9.03267138891649,0.0,1.0
1634892544.3125,0,0,0.0,0.0,1.0
1634892544.78125,0,0,9.850485625171078,0.0,1.0
1634892545.25,0,0,0.0,0.0,1.0
1634892545.71875,0,0,9.43572802654964,0.0,1.0
1634892546.1875,0,0,7.288889477034453,0.0,1.0
1634892546.65625,0,0,0.0,0.0,1.0
1634892547.125,0,0,8.255458068558116,0.0,1.0
1634892547.59375,0,0,6.09705370486231,0.0,1.0
1634892548.0625,0,0,8.16049984649756,0.0,1.0
1634892548.53125,0,0,0.0,0.0,1.0
1634892549.0,0,0,32.4146875212794,0.0,1.0
1634892549.46875,0,0,17.294392023133504,0.0,1.0
1634892549.9375,0,0,0.0,0.0,1.0
1634892550.40625,0,0,17.91078777179698,0.0,1.0
1634892550.875,0,0,1.344085438702576,0.0,1.0
1634892551.34375,0,0,116.13174116302238,0.0,1.0
1634892551.8125,0,0,0.0,0.0,1.0
1634892552.28125,0,0,82.98664943375606,0.0,1.0
1634892552.75,0,0,88.8031890053441,0.0,1.0
1634892553.21875,0,0,31.24697869309188,0.0,1.0
1634892553.6875,0,0,66.26525474077496,0.0,1.0
1634892554.15625,0,0,200.99421003647245,0.0,1.0
1634892554.625,0,0,0.0,0.0,1.0
1634892555.09375,0,0,328.68682358328454,0.0,1.0
1634892555.5625,0,0,0.0,0.0,1.0
1634892556.03125,0,0,7.012652912080611,0.0,1.0
1634892556.5,0,0,34.18728655284107,0.0,1.0
1634892556.96875,0,0,11.528851125641367,0.0,1.0
1634892557.4375,0,0,0.0,0.0,1.0
1634892557.90625,0,0,-0.03414183634191878,0.0,1.0
1634892558.375,0,0,0.0,0.0,1.0
1634892558.84375,0,0,67.25461406997808,0.0,1.0
1634892559.3125,0,0,4.030943095425342,0.0,1.0
1634892559.78125,0,0,-6.424340374659726,0.0,1.0
1634892560.25,0,0,56.928355905519595,0.0,1.0
1634892560.71875,0,0,56.62436491198413,0.0,1.0
1634892561.1875,0,0,0.0,0.0,1.0
1634892561.65625,0,0,50.34386236423749,0.0,1.0
1634892562.125,0,0,11.99622801578344,0.0,1.0
1634892562.59375,0,0,0.0,0.0,1.0
1634892563.0625,0,0,11.559933979739638,0.0,1.0
1634892563.53125,0,0,0.0,0.0,1.0
1634892564.0,0,0,0.0,0.0,1.0
1634892564.46875,0,0,11.60112963499455,0.0,1.0
1634892564.9375,0,0,0.0,0.0,1.0
1634892565.40625,0,0,9.411147381503076,0.0,1.0
1634892565.875,0,0,19.383035062160165,0.0,1.0
1634892566.34375,0,0,0.0,0.0,1.0
1634892566.8125,0,0,16.003618521117843,0.0,1.0
1634892567.28125,0,0,6.295170884246948,0.0,1.0
1634892567.75,0,0,8.367235672009567,0.0,1.0
1634892568.21875,0,0,6.874846846557914,0.0,1.0
1634892568.6875,0,0,9.85279804107738,0.0,1.0
1634892569.15625,0,0,9.945429128622424,0.0,1.0
1634892569.625,0,0,0.0,0.0,1.0
1634892570.09375,0,0,7.489659021421187,0.0,1.0
1634892570.5625,0,0,10.924618518486735,0.0,1.0
1634892571.03125,0,0,0.0,0.0,1.0
1634892571.5,0,0,11.47374519541927,0.0,1.0
1634892571.96875,0,0,0.0,0.0,1.0
1634892572.4375,0,0,31.995394354524354,0.0,1.0
1634892572.90625,0,0,13.236861623797772,0.0,1.0
1634892573.375,0,0,0.0,0.0,1.0
1634892573.84375,0,0,16.151398466571127,0.0,1.0
1634892574.3125,0,0,0.0,0.0,1.0
1634892574.78125,0,0,14.9607646483714,0.0,1.0
1634892575.25,0,0,10.679996449140335,0.0,1.0
1634892575.71875,0,0,13.355720874295157,0.0,1.0
1634892576.1875,0,0,12.937732526718154,0.0,1.0
1634892576.65625,0,0,13.775185615862373,0.0,1.0
1634892577.125,0,0,0.0,0.0,1.0
1634892577.59375,0,0,13.441709006785928,0.0,1.0
1634892578.0625,0,0,0.0,0.0,1.0
1634892578.53125,0,0,13.67340677574789,0.0,1.0
1634892579.0,0,0,10.411500685439728,0.0,1.0
1634892579.46875,0,0,8.040524846110733,0.0,1.0
1634892579.9375,0,0,13.442219643443982,0.0,1.0
1634892580.40625,0,0,0.0,0.0,1.0
1634892580.875,0,0,14.848207062140176,0.0,1.0
1634892581.34375,0,0,11.396177336594796,0.0,1.0
1634892581.8125,0,0,11.967358712640069,0.0,1.0
1634892582.28125,0,0,12.92066665342161,0.0,1.0
1634892582.75,0,0,0.0,0.0,1.0
1634892583.21875,0,0,13.828378791283106,0.0,1.0
1634892583.6875,0,0,11.801704973815868,0.0,1.0
1634892584.15625,0,0,9.183495359771337,0.0,1.0
1634892584.625,0,0,13.641633414028185,0.0,1.0
1634892585.09375,0,0,0.0,0.0,1.0
1634892585.5625,0,0,16.748886035569953,0.0,1.0
1634892586.03125,0,0,16.742580630635686,0.0,1.0
1634892586.5,0,0,0.0,0.0,1.0
1634892586.96875,0,0,16.705663949478865,0.0,1.0
1634892587.4375,0,0,0.0,0.0,1.0
1634892587.90625,0,0,17.877895188095064,0.0,1.0
1634892588.375,0,0,15.208770288045793,0.0,1.0
1634892588.84375,0,0,0.0,0.0,1.0
1634892589.3125,0,0,10.107751557111976,0.0,1.0
1634892589.78125,0,0,0.0,0.0,1.0
1634892590.25,0,0,16.36101006509058,0.0,1.0
1634892590.71875,0,0,12.536310603211154,0.0,1.0
1634892591.1875,0,0,0.0,0.0,1.0
1634892591.65625,0,0,20.56263714536791,0.0,1.0
1634892592.125,0,0,13.789247344375639,0.0,1.0
1634892592.59375,0,0,0.0,0.0,1.0
1634892593.0625,0,0,11.971365778044374,0.0,1.0
1634892593.53125,0,0,0.0,0.0,1.0
1634892594.0,0,0,14.967317156582238,0.0,1.0
1634892594.46875,0,0,12.348495290215885,0.0,1.0
1634892594.9375,0,0,0.0,0.0,1.0
1634892595.40625,0,0,10.131408133316116,0.0,1.0
1634892595.875,0,0,0.0,0.0,1.0
1634892596.34375,0,0,0.0,0.0,1.0
1634892596.8125,0,0,11.728788420316118,0.0,1.0
1634892597.28125,0,0,0.0,0.0,1.0
1634892597.75,0,0,11.3949571802118,0.0,1.0
1634892598.21875,0,0,11.779701668684629,0.0,1.0
1634892598.6875,0,0,0.0,0.0,1.0
1634892599.15625,0,0,11.751210749072927,0.0,1.0
1634892599.625,0,0,14.369540550527267,0.0,1.0
1634892600.09375,0,0,0.0,0.0,1.0
1634892600.5625,0,0,14.802188954501323,0.0,1.0
1634892601.03125,0,0,0.0,0.0,1.0
1634892601.5,0,0,16.134497141187595,0.0,1.0
1634892601.96875,0,0,15.935015972011131,0.0,1.0
1634892602.4375,0,0,0.0,0.0,1.0
1634892602.90625,0,0,15.616242584323965,0.0,1.0
1634892603.375,0,0,18.10694189096209,0.0,1.0
1634892603.84375,0,0,11.87100821753099,0.0,1.0
1634892604.3125,0,0,13.284794005417591,0.0,1.0
1634892604.78125,0,0,14.858516145993104,0.0,1.0
1634892605.25,0,0,0.0,0.0,1.0
1634892605.71875,0,0,17.067932725752467,0.0,1.0
1634892606.1875,0,0,0.0,0.0,1.0
1634892606.65625,0,0,18.079366049430813,0.0,1.0
1634892607.125,0,0,11.966304799540653,0.0,1.0
1634892607.59375,0,0,7.129354241850791,0.0,1.0
1634892608.0625,0,0,10.218420449357673,0.0,1.0
1634892608.53125,0,0,0.0,0.0,1.0
1634892609.0,0,0,6.853836157950139,0.0,1.0
1634892609.46875,0,0,7.666751887395654,0.0,1.0
1634892609.9375,0,0,8.916169866894146,0.0,1.0
1634892610.40625,0,0,0.0,0.0,1.0
1634892610.875,0,0,11.274379269281399,0.0,1.0
1634892611.34375,0,0,8.726068367053726,0.0,1.0
1634892611.8125,0,0,0.0,0.0,1.0
1634892612.28125,0,0,6.577316415424603,0.0,1.0
1634892612.75,0,0,2.718656567845828,0.0,1.0
1634892613.21875,0,0,1.7184153640435316,0.0,1.0
1634892613.6875,0,0,7.699654223097862,0.0,1.0
1634892614.15625,0,0,1.3481409966203113,0.0,1.0
1634892614.625,0,0,1.0471377103731092,0.0,1.0
1634892615.09375,0,0,5.303078147342873,0.0,1.0
1634892615.5625,0,0,0.0,0.0,1.0
1634892616.03125,0,0,4.9719894449560496,0.0,1.0
1634892616.5,0,0,6.1908587102267365,0.0,1.0
1634892616.96875,0,0,0.0,0.0,1.0
1634892617.4375,0,0,6.606591273410029,0.0,1.0
1634892617.90625,0,0,7.437983126078233,0.0,1.0
1634892618.375,0,0,0.0,0.0,1.0
1634892618.84375,0,0,8.19256221748976,0.0,1.0
1634892619.3125,0,0,5.9919712269421685,0.0,1.0
1634892619.78125,0,0,8.712104758384625,0.0,1.0
1634892620.25,0,0,6.513307380117969,0.0,1.0
1634892620.71875,0,0,7.0371170378816,0.0,1.0
1634892621.1875,0,0,10.624656298887002,0.0,1.0
1634892621.65625,0,0,0.0,0.0,1.0
1634892622.125,0,0,7.763267016080024,0.0,1.0
1634892622.59375,0,0,0.0,0.0,1.0
1634892623.0625,0,0,8.361023766467635,0.0,1.0
1634892623.53125,0,0,9.421612614325419,0.0,1.0
1634892624.0,0,0,0.0,0.0,1.0
1634892624.46875,0,0,9.898923926772486,0.0,1.0
1634892624.9375,0,0,7.0113932559939895,0.0,1.0
1634892625.40625,0,0,18.440461346418473,0.0,1.0
1634892625.875,0,0,6.807930330276468,0.0,1.0
1634892626.34375,0,0,4.571259542786633,0.0,1.0
1634892626.8125,0,0,14.47810424579827,0.0,1.0
1634892627.28125,0,0,7.924393564636062,0.0,1.0
1634892627.75,0,0,0.0,0.0,1.0
1634892628.21875,0,0,8.930458920943044,0.0,1.0
1634892628.6875,0,0,8.79922986446892,0.0,1.0
1634892629.15625,0,0,5.658732873235887,0.0,1.0
1634892629.625,0,0,0.0,0.0,1.0
1634892630.09375,0,0,0.0,0.0,1.0
1634892630.5625,0,0,6.685693555273641,0.0,1.0
1634892631.03125,0,0,9.968854023271115,0.0,1.0
1634892631.5,0,0,0.0,0.0,1.0
1634892631.96875,0,0,6.946047114171478,0.0,1.0
1634892632.4375,0,0,0.0,0.0,1.0
1634892632.90625,0,0,2.6574872304192834,0.0,1.0
1634892633.375,0,0,16.443077561199733,0.0,1.0
1634892633.84375,0,0,45.96474090651785,0.0,1.0
1634892634.3125,0,0,32.75777265221601,0.0,1.0
1634892634.78125,0,0,0.0,0.0,1.0
1634892635.25,0,0,6.155953436624638,0.0,1.0
1634892635.71875,0,0,18.94840093965918,0.0,1.0
1634892636.1875,0,0,8.656076401686198,0.0,1.0
1634892636.65625,0,0,0.0,0.0,1.0
1634892637.125,0,0,10.591378217423145,0.0,1.0
1634892637.59375,0,0,7.895566197949255,0.0,1.0
1634892638.0625,0,0,7.12200728016424,0.0,1.0
1634892638.53125,0,0,11.765762828517195,0.0,1.0
1634892639.0,0,0,7.73384654352825,0.0,1.0
1634892639.46875,0,0,7.934739252010698,0.0,1.0
1634892639.9375,0,0,8.146537246403563,0.0,1.0
1634892640.40625,0,0,0.0,0.0,1.0
1634892640.875,0,0,14.082601337518067,0.0,1.0
1634892641.34375,0,0,9.544638847162851,0.0,1.0
1634892641.8125,0,0,6.947011777611355,0.0,1.0
1634892642.28125,0,0,9.88947963190327,0.0,1.0
1634892642.75,0,0,11.199103137145205,0.0,1.0
1634892643.21875,0,0,0.0,0.0,1.0
1634892643.6875,0,0,10.970197568904368,0.0,1.0
1634892644.15625,0,0,7.976158118857991,0.0,1.0
1634892644.625,0,0,8.907468912672782,0.0,1.0
1634892645.09375,0,0,11.995491612503947,0.0,1.0
1634892645.5625,0,0,0.0,0.0,1.0
1634892646.03125,0,0,9.164686433882245,0.0,1.0
1634892646.5,0,0,0.0,0.0,1.0
1634892646.96875,0,0,0.0,0.0,1.0
1634892647.4375,0,0,8.415112832694064,0.0,1.0
1634892647.90625,0,0,6.809953059940879,0.0,1.0
1634892648.375,0,0,0.0,0.0,1.0
1634892648.84375,0,0,10.367433271848821,0.0,1.0
1634892649.3125,0,0,7.990681921255331,0.0,1.0
1634892649.78125,0,0,0.0,0.0,1.0
1634892650.25,0,0,5.768419510953752,0.0,1.0
1634892650.71875,0,0,6.280981844311177,0.0,1.0
1634892651.1875,0,0,8.251356520724505,0.0,1.0
1634892651.65625,0,0,5.743356739926235,0.0,1.0
1634892652.125,0,0,8.447749063232257,0.0,1.0
1634892652.59375,0,0,0.0,0.0,1.0
1634892653.0625,0,0,14.260797949405688,0.0,1.0
1634892653.53125,0,0,0.0,0.0,1.0
1634892654.0,0,0,0.0,0.0,1.0
1634892654.46875,0,0,8.891530688612763,0.0,1.0
1634892654.9375,0,0,0.0,0.0,1.0
1634892655.40625,0,0,9.16942822348147,0.0,1.0
1634892655.875,0,0,9.559940778941344,0.0,1.0
1634892656.34375,0,0,0.0,0.0,1.0
1634892656.8125,0,0,7.633065257093796,0.0,1.0
1634892657.28125,0,0,10.945798161387335,0.0,1.0
1634892657.75,0,0,9.23485043038272,0.0,1.0
1634892658.21875,0,0,11.91840225431523,0.0,1.0
1634892658.6875,0,0,0.0,0.0,1.0
1634892659.15625,0,0,0.0,0.0,1.0
1634892659.625,0,0,9.36463439355648,0.0,1.0
1634892660.09375,0,0,10.21114918549009,0.0,1.0
1634892660.5625,0,0,0.0,0.0,1.0
1634892661.03125,0,0,11.54934084079528,0.0,1.0
1634892661.5,0,0,0.0,0.0,1.0
1634892661.96875,0,0,0.0,0.0,1.0
1634892662.4375,0,0,10.443106982803062,0.0,1.0
1634892662.90625,0,0,0.0,0.0,1.0
1634892663.375,0,0,8.814126576858092,0.0,1.0
1634892663.84375,0,0,8.852035106960628,0.0,1.0
1634892664.3125,0,0,8.301860386894324,0.0,1.0
1634892664.78125,0,0,5.618107503787579,0.0,1.0
1634892665.25,0,0,20.23564527331208,0.0,1.0
1634892665.71875,0,0,20.452362874997018,0.0,1.0
1634892666.1875,0,0,0.0,0.0,1.0
1634892666.65625,0,0,15.1361621783461,0.0,1.0
1634892667.125,0,0,0.0,0.0,1.0
1634892667.59375,0,0,-10.21505255036606,0.0,1.0
1634892668.0625,0,0,58.4272585423366,0.0,1.0
1634892668.53125,0,0,0.0,0.0,1.0
1634892669.0,0,0,1.4948607078352238,0.0,1.0
1634892669.46875,0,0,16.807638296537235,0.0,1.0
1634892669.9375,0,0,9.174434060281397,0.0,1.0
1634892670.40625,0,0,0.0,0.0,1.0
1634892670.875,0,0,9.941540192957046,0.0,1.0
1634892671.34375,0,0,8.035682143963921,0.0,1.0
1634892671.8125,0,0,10.40522502545681,0.0,1.0
1634892672.28125,0,0,0.0,0.0,1.0
1634892672.75,0,0,11.82705561907667,0.0,1.0
1634892673.21875,0,0,9.828728198765686,0.0,1.0
1634892673.6875,0,0,0.0,0.0,1.0
1634892674.15625,0,0,10.872098267853184,0.0,1.0
1634892674.625,0,0,11.367916036827717,0.0,1.0
1634892675.09375,0,0,0.0,0.0,1.0
1634892675.5625,0,0,12.460458438706565,0.0,1.0
1634892676.03125,0,0,13.00302725924308,0.0,1.0
1634892676.5,0,0,0.0,0.0,1.0
1634892676.96875,0,0,12.452624610899017,0.0,1.0
1634892677.4375,0,0,13.523235306135748,0.0,1.0
1634892677.90625,0,0,0.0,0.0,1.0
1634892678.375,0,0,13.830948371567684,0.0,1.0
1634892678.84375,0,0,0.0,0.0,1.0
1634892679.3125,0,0,13.52025241079099,0.0,1.0
1634892679.78125,0,0,12.448924166349263,0.0,1.0
1634892680.25,0,0,0.0,0.0,1.0
1634892680.71875,0,0,14.625101301251359,0.0,1.0
1634892681.1875,0,0,14.085208979318676,0.0,1.0
1634892681.65625,0,0,0.0,0.0,1.0
1634892682.125,0,0,15.514388370692286,0.0,1.0
1634892682.59375,0,0,0.0,0.0,1.0
1634892683.0625,0,0,0.0,0.0,1.0
1634892683.53125,0,0,16.072460203803196,0.0,1.0
1634892684.0,0,0,0.0,0.0,1.0
1634892684.46875,0,0,19.509504352895338,0.0,1.0
1634892684.9375,0,0,12.60196417339429,0.0,1.0
1634892685.40625,0,0,0.0,0.0,1.0
1634892685.875,0,0,12.425698665654755,0.0,1.0
1634892686.34375,0,0,0.0,0.0,1.0
1634892686.8125,0,0,8.682345912344028,0.0,1.0
1634892687.28125,0,0,13.813040295370584,0.0,1.0
1634892687.75,0,0,0.0,0.0,1.0
1634892688.21875,0,0,13.479688845061599,0.0,1.0
1634892688.6875,0,0,0.0,0.0,1.0
1634892689.15625,0,0,11.836026668001734,0.0,1.0
1634892689.625,0,0,7.427503161926303,0.0,1.0
1634892690.09375,0,0,0.0,0.0,1.0
1634892690.5625,0,0,9.71840766372723,0.0,1.0
1634892691.03125,0,0,0.0,0.0,1.0
1634892691.5,0,0,0.0,0.0,1.0
1634892691.96875,0,0,10.06028068308868,0.0,1.0
1634892692.4375,0,0,0.0,0.0,1.0
1634892692.90625,0,0,14.431572773825895,0.0,1.0
1634892693.375,0,0,14.161379147847146,0.0,1.0
1634892693.84375,0,0,0.0,0.0,1.0
1634892694.3125,0,0,11.038707877888825,0.0,1.0
1634892694.78125,0,0,14.828970971987744,0.0,1.0
1634892695.25,0,0,0.0,0.0,1.0
1634892695.71875,0,0,10.006859113025014,0.0,1.0
1634892696.1875,0,0,8.104086592106677,0.0,1.0
1634892696.65625,0,0,7.117442091640109,0.0,1.0
1634892697.125,0,0,9.268919438770045,0.0,1.0
1634892697.59375,0,0,0.0,0.0,1.0
1634892698.0625,0,0,7.480251324229165,0.0,1.0
1634892698.53125,0,0,8.029264623214639,0.0,1.0
1634892699.0,0,0,0.0,0.0,1.0
1634892699.46875,0,0,9.771001062287702,0.0,1.0
1634892699.9375,0,0,11.486372664868439,0.0,1.0
1634892700.40625,0,0,0.0,0.0,1.0
1634892700.875,0,0,10.690052105036578,0.0,1.0
1634892701.34375,0,0,12.68252385239603,0.0,1.0
1634892701.8125,0,0,0.0,0.0,1.0
1634892702.28125,0,0,11.762179517535166,0.0,1.0
1634892702.75,0,0,12.309688057443704,0.0,1.0
1634892703.21875,0,0,0.0,0.0,1.0
1634892703.6875,0,0,13.567540199923606,0.0,1.0
1634892704.15625,0,0,15.406678585203796,0.0,1.0
1634892704.625,0,0,0.0,0.0,1.0
1634892705.09375,0,0,10.726960990149728,0.0,1.0
1634892705.5625,0,0,0.0,0.0,1.0
1634892706.03125,0,0,0.0,0.0,1.0
1634892706.5,0,0,10.10940244148598,0.0,1.0
1634892706.96875,0,0,0.0,0.0,1.0
1634892707.4375,0,0,9.107841898315645,0.0,1.0
1634892707.90625,0,0,7.216920660805962,0.0,1.0
1634892708.375,0,0,4.571038492037495,0.0,1.0
1634892708.84375,0,0,8.794472795962797,0.0,1.0
1634892709.3125,0,0,5.437128663828417,0.0,1.0
1634892709.78125,0,0,0.0,0.0,1.0
1634892710.25,0,0,12.870043470348973,0.0,1.0
1634892710.71875,0,0,10.652002833717122,0.0,1.0
1634892711.1875,0,0,0.0,0.0,1.0
1634892711.65625,0,0,11.260626144153237,0.0,1.0
1634892712.125,0,0,13.622708044837646,0.0,1.0
1634892712.59375,0,0,0.0,0.0,1.0
1634892713.0625,0,0,14.71508221634059,0.0,1.0
1634892713.53125,0,0,0.0,0.0,1.0
1634892714.0,0,0,10.868223252705844,0.0,1.0
1634892714.46875,0,0,12.756128591148032,0.0,1.0
1634892714.9375,0,0,0.0,0.0,1.0
1634892715.40625,0,0,13.450021119072295,0.0,1.0
1634892715.875,0,0,0.0,0.0,1.0
1634892716.34375,0,0,14.61881797401958,0.0,1.0
1634892716.8125,0,0,13.725227404569674,0.0,1.0
1634892717.28125,0,0,0.0,0.0,1.0
1634892717.75,0,0,0.0,0.0,1.0
1634892718.21875,0,0,14.807184719775668,0.0,1.0
1634892718.6875,0,0,0.0,0.0,1.0
1634892719.15625,0,0,14.979302893989509,0.0,1.0
1634892719.625,0,0,10.780406114603169,0.0,1.0
1634892720.09375,0,0,8.717578491628744,0.0,1.0
1634892720.5625,0,0,12.206842222416777,0.0,1.0
1634892721.03125,0,0,0.0,0.0,1.0
1634892721.5,0,0,14.269009994209798,0.0,1.0
1634892721.96875,0,0,12.53547610142561,0.0,1.0
1634892722.4375,0,0,0.0,0.0,1.0
1634892722.90625,0,0,17.21604019837758,0.0,1.0
1634892723.375,0,0,10.586138273022854,0.0,1.0
1634892723.84375,0,0,0.0,0.0,1.0
1634892724.3125,0,0,30.398801104287696,0.0,1.0
1634892724.78125,0,0,0.0,0.0,1.0
1634892725.25,0,0,10.036324997440424,0.0,1.0
1634892725.71875,0,0,14.816710526681515,0.0,1.0
1634892726.1875,0,0,0.0,0.0,1.0
1634892726.65625,0,0,7.0160546608436505,0.0,1.0
1634892727.125,0,0,2.2486854542792742,0.0,1.0
1634892727.59375,0,0,19.534680008598496,0.0,1.0
1634892728.0625,0,0,0.0,0.0,1.0
1634892728.53125,0,0,9.350469986508939,0.0,1.0
1634892729.0,0,0,19.213705750447552,0.0,1.0
1634892729.46875,0,0,0.0,0.0,1.0
1634892729.9375,0,0,9.819388830316504,0.0,1.0
1634892730.40625,0,0,6.430658592135434,0.0,1.0
1634892730.875,0,0,5.328224696515004,0.0,1.0
1634892731.34375,0,0,5.954253579668566,0.0,1.0
1634892731.8125,0,0,0.0,0.0,1.0
1634892732.28125,0,0,4.916582975948893,0.0,1.0
1634892732.75,0,0,4.328942706357321,0.0,1.0
1634892733.21875,0,0,4.332055390618201,0.0,1.0
1634892733.6875,0,0,5.987022449063057,0.0,1.0
1634892734.15625,0,0,0.0,0.0,1.0
1634892734.625,0,0,5.95076188222971,0.0,1.0
1634892735.09375,0,0,8.844784045318411,0.0,1.0
1634892735.5625,0,0,0.0,0.0,1.0
1634892736.03125,0,0,8.688325947253503,0.0,1.0
1634892736.5,0,0,11.762259376802314,0.0,1.0
1634892736.96875,0,0,11.491512708729857,0.0,1.0
1634892737.4375,0,0,10.462203908588814,0.0,1.0
1634892737.90625,0,0,10.618976099451936,0.0,1.0
1634892738.375,0,0,7.877107733430098,0.0,1.0
1634892738.84375,0,0,9.760432944935157,0.0,1.0
1634892739.3125,0,0,0.0,0.0,1.0
1634892739.78125,0,0,10.933732334850967,0.0,1.0
1634892740.25,0,0,0.0,0.0,1.0
1634892740.71875,0,0,8.855006629940997,0.0,1.0
1634892741.1875,0,0,8.8203056197353,0.0,1.0
1634892741.65625,0,0,7.757343036661918,0.0,1.0
1634892742.125,0,0,8.856542777409755,0.0,1.0
1634892742.59375,0,0,9.058555272452109,0.0,1.0
1634892743.0625,0,0,8.805238879042635,0.0,1.0
1634892743.53125,0,0,0.0,0.0,1.0
1634892744.0,0,0,10.519019108937137,0.0,1.0
1634892744.46875,0,0,10.299151319609066,0.0,1.0
1634892744.9375,0,0,0.0,0.0,1.0
1634892745.40625,0,0,12.925363091922957,0.0,1.0
1634892745.875,0,0,0.0,0.0,1.0
1634892746.34375,0,0,15.077089198650786,0.0,1.0
1634892746.8125,0,0,15.384120094206116,0.0,1.0
1634892747.28125,0,0,13.306345947794814,0.0,1.0
1634892747.75,0,0,15.575026790250368,0.0,1.0
1634892748.21875,0,0,0.0,0.0,1.0
1634892748.6875,0,0,11.674015641128472,0.0,1.0
1634892749.15625,0,0,11.052157783830289,0.0,1.0
1634892749.625,0,0,10.64905345169081,0.0,1.0
1634892750.09375,0,0,12.7582522825787,0.0,1.0
1634892750.5625,0,0,0.0,0.0,1.0
1634892751.03125,0,0,11.211548296775012,0.0,1.0
1634892751.5,0,0,12.570827248816862,0.0,1.0
1634892751.96875,0,0,0.0,0.0,1.0
1634892752.4375,0,0,9.743479889949102,0.0,1.0
1634892752.90625,0,0,0.0,0.0,1.0
1634892753.375,0,0,13.894635835748852,0.0,1.0
1634892753.84375,0,0,12.124272018043003,0.0,1.0
1634892754.3125,0,0,11.882032349014015,0.0,1.0
1634892754.78125,0,0,11.99378891223543,0.0,1.0
1634892755.25,0,0,0.0,0.0,1.0
1634892755.71875,0,0,12.858154888763085,0.0,1.0
1634892756.1875,0,0,11.111207782201419,0.0,1.0
1634892756.65625,0,0,0.0,0.0,1.0
1634892757.125,0,0,13.041016424587783,0.0,1.0
1634892757.59375,0,0,0.0,0.0,1.0
1634892758.0625,0,0,12.153790208933167,0.0,1.0
1634892758.53125,0,0,8.721967871676283,0.0,1.0
1634892759.0,0,0,9.621239519319543,0.0,1.0
1634892759.46875,0,0,14.091807299191027,0.0,1.0
1634892759.9375,0,0,0.0,0.0,1.0
1634892760.40625,0,0,10.557612094423652,0.0,1.0
1634892760.875,0,0,13.493135569515315,0.0,1.0
1634892761.34375,0,0,0.0,0.0,1.0
1634892761.8125,0,0,12.767845172291228,0.0,1.0
1634892762.28125,0,0,0.0,0.0,1.0
1634892762.75,0,0,7.926556776731091,0.0,1.0
1634892763.21875,0,0,11.609173550908,0.0,1.0
1634892763.6875,0,0,0.0,0.0,1.0
1634892764.15625,0,0,13.025782548764798,0.0,1.0
1634892764.625,0,0,0.0,0.0,1.0
1634892765.09375,0,0,0.0,0.0,1.0
1634892765.5625,0,0,10.43960813807555,0.0,1.0
1634892766.03125,0,0,0.0,0.0,1.0
1634892766.5,0,0,10.204804758562878,0.0,1.0
1634892766.96875,0,0,0.0,0.0,1.0
1634892767.4375,0,0,0.0,0.0,1.0
1634892767.90625,0,0,11.884767681836315,0.0,1.0
1634892768.375,0,0,0.0,0.0,1.0
1634892768.84375,0,0,9.155078348496524,0.0,1.0
1634892769.3125,0,0,8.529091420178432,0.0,1.0
1634892769.78125,0,0,0.0,0.0,1.0
1634892770.25,0,0,7.692090690170367,0.0,1.0
1634892770.71875,0,0,0.0,0.0,1.0
1634892771.1875,0,0,9.486946599872196,0.0,1.0
1634892771.65625,0,0,7.253224829666501,0.0,1.0
1634892772.125,0,0,6.038883451924623,0.0,1.0
1634892772.59375,0,0,6.487669815916664,0.0,1.0
1634892773.0625,0,0,0.0,0.0,1.0
1634892773.53125,0,0,9.604379979140084,0.0,1.0
1634892774.0,0,0,9.399711820344663,0.0,1.0
1634892774.46875,0,0,0.0,0.0,1.0
1634892774.9375,0,0,12.365639176752355,0.0,1.0
1634892775.40625,0,0,0.0,0.0,1.0
1634892775.875,0,0,10.810153179207868,0.0,1.0
1634892776.34375,0,0,11.566965788396116,0.0,1.0
1634892776.8125,0,0,0.0,0.0,1.0
1634892777.28125,0,0,13.290076070567654,0.0,1.0
1634892777.75,0,0,0.0,0.0,1.0
1634892778.21875,0,0,12.762119000416138,0.0,1.0
1634892778.6875,0,0,12.26847717390322,0.0,1.0
1634892779.15625,0,0,0.0,0.0,1.0
1634892779.625,0,0,12.23407879402075,0.0,1.0
1634892780.09375,0,0,11.034317338472459,0.0,1.0
1634892780.5625,0,0,0.0,0.0,1.0
1634892781.03125,0,0,11.784263652822906,0.0,1.0
1634892781.5,0,0,0.0,0.0,1.0
1634892781.96875,0,0,9.982651286546089,0.0,1.0
1634892782.4375,0,0,12.62677337321095,0.0,1.0
1634892782.90625,0,0,0.0,0.0,1.0
1634892783.375,0,0,5.922102661261415,0.0,1.0
1634892783.84375,0,0,0.0,0.0,1.0
1634892784.3125,0,0,0.0,0.0,1.0
1634892784.78125,0,0,60.402892910378085,0.0,1.0
1634892785.25,0,0,146.09959889951233,0.0,1.0
1634892785.71875,0,0,156.0777799089308,0.0,1.0
1634892786.1875,0,0,67.40688464763187,0.0,1.0
1634892786.65625,0,0,81.41626750902412,0.0,1.0
1634892787.125,0,0,74.65997679260435,0.0,1.0
1634892787.59375,0,0,70.4547155911367,0.0,1.0
1634892788.0625,0,0,0.0,0.0,1.0
1634892788.53125,0,0,52.91744728106096,0.0,1.0
1634892789.0,0,0,27.32746974017415,0.0,1.0
1634892789.46875,0,0,-0.12263601141330967,0.0,1.0
1634892789.9375,0,0,2.245165181693087,0.0,1.0
1634892790.40625,0,0,14.649305258279545,0.0,1.0
1634892790.875,0,0,7.841281023517166,0.0,1.0
1634892791.34375,0,0,7.5005454681887365,0.0,1.0
1634892791.8125,0,0,8.5238838518373,0.0,1.0
1634892792.28125,0,0,0.0,0.0,1.0
1634892792.75,0,0,10.859264541226448,0.0,1.0
1634892793.21875,0,0,0.0,0.0,1.0
1634892793.6875,0,0,8.101532196544966,0.0,1.0
1634892794.15625,0,0,10.358335102448978,0.0,1.0
1634892794.625,0,0,8.457471394267609,0.0,1.0
1634892795.09375,0,0,5.634265957044366,0.0,1.0
1634892795.5625,0,0,12.232753715597198,0.0,1.0
1634892796.03125,0,0,9.386824110803243,0.0,1.0
1634892796.5,0,0,0.0,0.0,1.0
1634892796.96875,0,0,10.74849900472966,0.0,1.0
1634892797.4375,0,0,9.557995386170708,0.0,1.0
1634892797.90625,0,0,0.0,0.0,1.0
1634892798.375,0,0,6.839888214500834,0.0,1.0
1634892798.84375,0,0,0.0,0.0,1.0
1634892799.3125,0,0,8.267837795241741,0.0,1.0
1634892799.78125,0,0,4.029824212231525,0.0,1.0
1634892800.25,0,0,4.406077145924942,0.0,1.0
1634892800.71875,0,0,7.544656699259373,0.0,1.0
1634892801.1875,0,0,0.0,0.0,1.0
1634892801.65625,0,0,5.687104646724764,0.0,1.0
1634892802.125,0,0,8.391807375189837,0.0,1.0
1634892802.59375,0,0,0.0,0.0,1.0
1634892803.0625,0,0,10.391361145596884,0.0,1.0
1634892803.53125,0,0,7.239001374748635,0.0,1.0
1634892804.0,0,0,6.341016809591676,0.0,1.0
1634892804.46875,0,0,10.308152719539537,0.0,1.0
1634892804.9375,0,0,0.0,0.0,1.0
1634892805.40625,0,0,10.725740501610572,0.0,1.0
1634892805.875,0,0,0.0,0.0,1.0
1634892806.34375,0,0,10.72693042078564,0.0,1.0
1634892806.8125,0,0,10.91390651829804,0.0,1.0
1634892807.28125,0,0,0.0,0.0,1.0
1634892807.75,0,0,10.331535936583293,0.0,1.0
1634892808.21875,0,0,12.325723204069037,0.0,1.0
1634892808.6875,0,0,10.38275049945613,0.0,1.0
1634892809.15625,0,0,9.67442841818729,0.0,1.0
1634892809.625,0,0,0.0,0.0,1.0
1634892810.09375,0,0,7.66634566141126,0.0,1.0
1634892810.5625,0,0,9.721397647854399,0.0,1.0
1634892811.03125,0,0,0.0,0.0,1.0
1634892811.5,0,0,10.097706510794001,0.0,1.0
1634892811.96875,0,0,8.058761003252375,0.0,1.0
1634892812.4375,0,0,9.852109241507652,0.0,1.0
1634892812.90625,0,0,10.817806872250086,0.0,1.0
1634892813.375,0,0,8.985623735736013,0.0,1.0
1634892813.84375,0,0,0.0,0.0,1.0
1634892814.3125,0,0,10.819649437858269,0.0,1.0
1634892814.78125,0,0,0.0,0.0,1.0
1634892815.25,0,0,10.183000153613522,0.0,1.0
1634892815.71875,0,0,8.059884000032953,0.0,1.0
1634892816.1875,0,0,0.0,0.0,1.0
1634892816.65625,0,0,11.413263223645005,0.0,1.0
1634892817.125,0,0,12.008914451059281,0.0,1.0
1634892817.59375,0,0,0.0,0.0,1.0
1634892818.0625,0,0,9.138653673364479,0.0,1.0
1634892818.53125,0,0,0.0,0.0,1.0
1634892819.0,0,0,0.0,0.0,1.0
1634892819.46875,0,0,12.085483405527409,0.0,1.0
1634892819.9375,0,0,0.0,0.0,1.0
1634892820.40625,0,0,10.90886728842591,0.0,1.0
1634892820.875,0,0,10.746574009425409,0.0,1.0
1634892821.34375,0,0,0.0,0.0,1.0
1634892821.8125,0,0,9.42908650429789,0.0,1.0
1634892822.28125,0,0,12.282031672919826,0.0,1.0
1634892822.75,0,0,0.0,0.0,1.0
1634892823.21875,0,0,10.701595517944833,0.0,1.0
1634892823.6875,0,0,10.451771928623973,0.0,1.0
1634892824.15625,0,0,0.0,0.0,1.0
1634892824.625,0,0,13.780812922564046,0.0,1.0
1634892825.09375,0,0,12.427402553013476,0.0,1.0
1634892825.5625,0,0,0.0,0.0,1.0
1634892826.03125,0,0,10.182466760570277,0.0,1.0
1634892826.5,0,0,14.057383600704824,0.0,1.0
1634892826.96875,0,0,0.0,0.0,1.0
1634892827.4375,0,0,10.798554934687477,0.0,1.0
1634892827.90625,0,0,0.0,0.0,1.0
1634892828.375,0,0,0.0,0.0,1.0
1634892828.84375,0,0,7.617417835822774,0.0,1.0
1634892829.3125,0,0,0.0,0.0,1.0
1634892829.78125,0,0,0.0,0.0,1.0
1634892830.25,0,0,10.20493987991386,0.0,1.0
1634892830.71875,0,0,0.0,0.0,1.0
1634892831.1875,0,0,11.094386307957572,0.0,1.0
1634892831.65625,0,0,10.732653649035676,0.0,1.0
1634892832.125,0,0,0.0,0.0,1.0
1634892832.59375,0,0,9.074140335687003,0.0,1.0
1634892833.0625,0,0,10.984545376352855,0.0,1.0
1634892833.53125,0,0,0.0,0.0,1.0
1634892834.0,0,0,8.829438629525866,0.0,1.0
1634892834.46875,0,0,14.406067605855537,0.0,1.0
1634892834.9375,0,0,0.0,0.0,1.0
1634892835.40625,0,0,10.692695395609489,0.0,1.0
1634892835.875,0,0,11.584491056477502,0.0,1.0
1634892836.34375,0,0,0.0,0.0,1.0
1634892836.8125,0,0,11.171202984198777,0.0,1.0
1634892837.28125,0,0,7.7316245087059565,0.0,1.0
1634892837.75,0,0,0.0,0.0,1.0
1634892838.21875,0,0,5.667878915515745,0.0,1.0
1634892838.6875,0,0,8.064430450829978,0.0,1.0
1634892839.15625,0,0,0.0,0.0,1.0
1634892839.625,0,0,7.848217846929402,0.0,1.0
1634892840.09375,0,0,0.0,0.0,1.0
1634892840.5625,0,0,9.763823520077999,0.0,1.0
1634892841.03125,0,0,7.048336720792854,0.0,1.0
1634892841.5,0,0,8.715681282454431,0.0,1.0
1634892841.96875,0,0,0.0,0.0,1.0
1634892842.4375,0,0,13.883811727029444,0.0,1.0
1634892842.90625,0,0,13.154553733068884,0.0,1.0
1634892843.375,0,0,0.0,0.0,1.0
1634892843.84375,0,0,10.74405846331224,0.0,1.0
1634892844.3125,0,0,9.82913785246081,0.0,1.0
1634892844.78125,0,0,7.067073599301362,0.0,1.0
1634892845.25,0,0,8.798428270452854,0.0,1.0
1634892845.71875,0,0,14.460176451156512,0.0,1.0
1634892846.1875,0,0,7.355571790693005,0.0,1.0
1634892846.65625,0,0,4.7001138315276085,0.0,1.0
1634892847.125,0,0,5.189170020891711,0.0,1.0
1634892847.59375,0,0,15.696289385606631,0.0,1.0
1634892848.0625,0,0,0.0,0.0,1.0
1634892848.53125,0,0,6.916814200576874,0.0,1.0
1634892849.0,0,0,5.314513609952151,0.0,1.0
1634892849.46875,0,0,5.540662868370444,0.0,1.0
1634892849.9375,0,0,4.815256049578636,0.0,1.0
1634892850.40625,0,0,0.0,0.0,1.0
1634892850.875,0,0,5.543659001611252,0.0,1.0
1634892851.34375,0,0,4.5010673436223625,0.0,1.0
1634892851.8125,0,0,2.7567372369081613,0.0,1.0
1634892852.28125,0,0,5.548460482453794,0.0,1.0
1634892852.75,0,0,5.330168657795707,0.0,1.0
1634892853.21875,0,0,4.385551684277911,0.0,1.0
1634892853.6875,0,0,5.954713383625147,0.0,1.0
1634892854.15625,0,0,0.0,0.0,1.0
1634892854.625,0,0,8.055822023547679,0.0,1.0
1634892855.09375,0,0,9.150758661639744,0.0,1.0
1634892855.5625,0,0,0.0,0.0,1.0
1634892856.03125,0,0,20.6323019288813,0.0,1.0
1634892856.5,0,0,7.411170668142076,0.0,1.0
1634892856.96875,0,0,1.1453564641558032,0.0,1.0
1634892857.4375,0,0,12.797612931232166,0.0,1.0
1634892857.90625,0,0,14.768632323841528,0.0,1.0
1634892858.375,0,0,0.0,0.0,1.0
1634892858.84375,0,0,12.505138043576805,0.0,1.0
1634892859.3125,0,0,12.616390944829401,0.0,1.0
1634892859.78125,0,0,11.786001779475471,0.0,1.0
1634892860.25,0,0,14.346964346434389,0.0,1.0
1634892860.71875,0,0,0.0,0.0,1.0
1634892861.1875,0,0,0.0,0.0,1.0
1634892861.65625,0,0,15.871892017677977,0.0,1.0
1634892862.125,0,0,0.0,0.0,1.0
1634892862.59375,0,0,16.091411133970976,0.0,1.0
1634892863.0625,0,0,14.745082911599479,0.0,1.0
1634892863.53125,0,0,0.0,0.0,1.0
1634892864.0,0,0,15.711443772650913,0.0,1.0
1634892864.46875,0,0,16.327085686817384,0.0,1.0
1634892864.9375,0,0,0.0,0.0,1.0
1634892865.40625,0,0,16.20067911014,0.0,1.0
1634892865.875,0,0,0.0,0.0,1.0
1634892866.34375,0,0,16.578091675825657,0.0,1.0
1634892866.8125,0,0,12.264572918093368,0.0,1.0
1634892867.28125,0,0,0.0,0.0,1.0
1634892867.75,0,0,15.429895708455824,0.0,1.0
1634892868.21875,0,0,14.9654746211233,0.0,1.0
1634892868.6875,0,0,0.0,0.0,1.0
1634892869.15625,0,0,13.421820680084277,0.0,1.0
1634892869.625,0,0,0.0,0.0,1.0
1634892870.09375,0,0,12.718736001149761,0.0,1.0
1634892870.5625,0,0,11.613770626369458,0.0,1.0
1634892871.03125,0,0,10.113025487913347,0.0,1.0
1634892871.5,0,0,12.593744715743727,0.0,1.0
1634892871.96875,0,0,11.661638103560719,0.0,1.0
1634892872.4375,0,0,0.0,0.0,1.0
1634892872.90625,0,0,12.862996549699062,0.0,1.0
1634892873.375,0,0,0.0,0.0,1.0
1634892873.84375,0,0,11.901531079045377,0.0,1.0
1634892874.3125,0,0,10.059039006482024,0.0,1.0
1634892874.78125,0,0,9.81931085288628,0.0,1.0
1634892875.25,0,0,11.527119864409844,0.0,1.0
1634892875.71875,0,0,0.0,0.0,1.0
1634892876.1875,0,0,13.924746448105012,0.0,1.0
1634892876.65625,0,0,12.760912502686852,0.0,1.0
1634892877.125,0,0,0.0,0.0,1.0
1634892877.59375,0,0,15.21604149784794,0.0,1.0
1634892878.0625,0,0,12.53935138702413,0.0,1.0
1634892878.53125,0,0,8.699636674093501,0.0,1.0
1634892879.0,0,0,13.955459102163315,0.0,1.0
1634892879.46875,0,0,0.0,0.0,1.0
1634892879.9375,0,0,13.021694441776598,0.0,1.0
1634892880.40625,0,0,0.0,0.0,1.0
1634892880.875,0,0,11.804858774426558,0.0,1.0
1634892881.34375,0,0,13.079512945774844,0.0,1.0
1634892881.8125,0,0,0.0,0.0,1.0
1634892882.28125,0,0,12.420248896916268,0.0,1.0
1634892882.75,0,0,0.0,0.0,1.0
1634892883.21875,0,0,13.762180983324024,0.0,1.0
1634892883.6875,0,0,12.603998225688567,0.0,1.0
1634892884.15625,0,0,0.0,0.0,1.0
1634892884.625,0,0,10.275643569414243,0.0,1.0
1634892885.09375,0,0,15.258165900854,0.0,1.0
1634892885.5625,0,0,0.0,0.0,1.0
1634892886.03125,0,0,14.713982344661472,0.0,1.0
1634892886.5,0,0,0.0,0.0,1.0
1634892886.96875,0,0,15.622335043804052,0.0,1.0
1634892887.4375,0,0,13.2401346688143,0.0,1.0
1634892887.90625,0,0,0.0,0.0,1.0
1634892888.375,0,0,8.980943997285362,0.0,1.0
1634892888.84375,0,0,0.0,0.0,1.0
1634892889.3125,0,0,12.511986737950574,0.0,1.0
1634892889.78125,0,0,12.012149376568694,0.0,1.0
1634892890.25,0,0,0.0,0.0,1.0
1634892890.71875,0,0,14.512126773765942,0.0,1.0
1634892891.1875,0,0,0.0,0.0,1.0
1634892891.65625,0,0,13.082659155055918,0.0,1.0
1634892892.125,0,0,9.670869548007264,0.0,1.0
1634892892.59375,0,0,5.638809321144976,0.0,1.0
1634892893.0625,0,0,14.084409734702813,0.0,1.0
1634892893.53125,0,0,14.051652781354154,0.0,1.0
1634892894.0,0,0,0.0,0.0,1.0
1634892894.46875,0,0,12.461916152989986,0.0,1.0
1634892894.9375,0,0,13.101690764829607,0.0,1.0
1634892895.40625,0,0,0.0,0.0,1.0
1634892895.875,0,0,14.433492139288704,0.0,1.0
1634892896.34375,0,0,0.0,0.0,1.0
1634892896.8125,0,0,15.574166968736291,0.0,1.0
1634892897.28125,0,0,13.054992216248277,0.0,1.0
1634892897.75,0,0,0.0,0.0,1.0
1634892898.21875,0,0,7.953384629496816,0.0,1.0
1634892898.6875,0,0,13.430439131917174,0.0,1.0
1634892899.15625,0,0,0.0,0.0,1.0
1634892899.625,0,0,12.855793243948636,0.0,1.0
1634892900.09375,0,0,0.0,0.0,1.0
1634892900.5625,0,0,13.759948903944505,0.0,1.0
1634892901.03125,0,0,10.78787066343954,0.0,1.0
1634892901.5,0,0,5.3328458856907135,0.0,1.0
1634892901.96875,0,0,11.434520117046253,0.0,1.0
1634892902.4375,0,0,11.093857595508883,0.0,1.0
1634892902.90625,0,0,10.726889946202391,0.0,1.0
1634892903.375,0,0,0.0,0.0,1.0
1634892903.84375,0,0,11.5875838868951,0.0,1.0
1634892904.3125,0,0,10.38061138725813,0.0,1.0
1634892904.78125,0,0,0.0,0.0,1.0
1634892905.25,0,0,10.78112583880438,0.0,1.0
1634892905.71875,0,0,0.0,0.0,1.0
1634892906.1875,0,0,8.21844122093957,0.0,1.0
1634892906.65625,0,0,8.794510761676337,0.0,1.0
1634892907.125,0,0,0.0,0.0,1.0
1634892907.59375,0,0,10.010763937690404,0.0,1.0
1634892908.0625,0,0,0.0,0.0,1.0
1634892908.53125,0,0,9.416189588946217,0.0,1.0
1634892909.0,0,0,0.0,0.0,1.0
1634892909.46875,0,0,12.998280896875452,0.0,1.0
1634892909.9375,0,0,0.0,0.0,1.0
1634892910.40625,0,0,13.416040643622043,0.0,1.0
1634892910.875,0,0,11.18516424548253,0.0,1.0
1634892911.34375,0,0,13.764225803502084,0.0,1.0
1634892911.8125,0,0,16.552445907834652,0.0,1.0
1634892912.28125,0,0,0.0,0.0,1.0
1634892912.75,0,0,6.882244769100467,0.0,1.0
1634892913.21875,0,0,42.659625214590704,0.0,1.0
1634892913.6875,0,0,24.11894646830884,0.0,1.0
1634892914.15625,0,0,-6.195479280916098,0.0,1.0
1634892914.625,0,0,0.0,0.0,1.0
1634892915.09375,0,0,401.4576020056888,0.0,2.0
1634892915.5625,0,0,0.0,0.0,2.0
1634892916.03125,0,0,34.47490451080256,0.0,2.0
1634892916.5,0,0,0.0,0.0,2.0
1634892916.96875,0,0,184.15337829310266,0.0,2.0
1634892917.4375,0,0,-4.285742693846235,0.0,2.0
1634892917.90625,0,0,26.162465662234776,0.0,2.0
1634892918.375,0,0,31.056160241501356,0.0,2.0
1634892918.84375,0,0,10.047835990775793,0.0,2.0
1634892919.3125,0,0,13.602982492800795,0.0,2.0
1634892919.78125,0,0,0.0,0.0,2.0
1634892920.25,0,0,11.261703250887619,0.0,2.0
1634892920.71875,0,0,13.641879695611825,0.0,2.0
1634892921.1875,0,0,0.0,0.0,2.0
1634892921.65625,0,0,7.524557282231816,0.0,2.0
1634892922.125,0,0,13.302700436432982,0.0,2.0
1634892922.59375,0,0,-0.39865290366402595,0.0,2.0
1634892923.0625,0,0,0.08854780996624845,0.0,2.0
1634892923.53125,0,0,10.578991082028262,0.0,2.0
1634892924.0,0,0,12.000372436216841,0.0,2.0
1634892924.46875,0,0,-7.619886648161112,0.0,2.0
1634892924.9375,0,0,-4.589341184534175,0.0,2.0
1634892925.40625,0,0,80.39093972747644,0.0,2.0
1634892925.875,0,0,0.0,0.0,2.0
1634892926.34375,0,0,14.88905368792795,0.0,2.0
1634892926.8125,0,0,12.603380912841681,0.0,2.0
1634892927.28125,0,0,0.0,0.0,2.0
1634892927.75,0,0,1.5566445962988458,0.0,2.0
1634892928.21875,0,0,7.309570256189814,0.0,2.0
1634892928.6875,0,0,0.0,0.0,2.0
1634892929.15625,0,0,6.8492208296906725,0.0,2.0
1634892929.625,0,0,8.635034982944452,0.0,2.0
1634892930.09375,0,0,0.0,0.0,2.0
1634892930.5625,0,0,15.586674910444932,0.0,2.0
1634892931.03125,0,0,0.0,0.0,2.0
1634892931.5,0,0,6.119294699018782,0.0,2.0
1634892931.96875,0,0,0.0,0.0,2.0
1634892932.4375,0,0,0.0,0.0,2.0
1634892932.90625,0,0,18.457349465589534,0.0,2.0
1634892933.375,0,0,0.0,0.0,2.0
1634892933.84375,0,0,20.86071118629484,0.0,2.0
1634892934.3125,0,0,21.452146869668248,0.0,2.0
1634892934.78125,0,0,0.0,0.0,2.0
1634892935.25,0,0,14.508575291828855,0.0,2.0
1634892935.71875,0,0,0.0,0.0,2.0
1634892936.1875,0,0,16.08970127158273,0.0,2.0
1634892936.65625,0,0,15.425555018212602,0.0,2.0
1634892937.125,0,0,0.0,0.0,2.0
1634892937.59375,0,0,16.520485765084786,0.0,2.0
1634892938.0625,0,0,16.85653636405317,0.0,2.0
1634892938.53125,0,0,0.0,0.0,2.0
1634892939.0,0,0,17.782098041533345,0.0,2.0
1634892939.46875,0,0,0.0,0.0,2.0
1634892939.9375,0,0,17.64198454136035,0.0,2.0
1634892940.40625,0,0,18.552900099430584,0.0,2.0
1634892940.875,0,0,0.0,0.0,2.0
1634892941.34375,0,0,15.652315280732658,0.0,2.0
1634892941.8125,0,0,17.531538493401488,0.0,2.0
1634892942.28125,0,0,0.0,0.0,2.0
1634892942.75,0,0,12.834809653926142,0.0,2.0
1634892943.21875,0,0,18.435274458610145,0.0,2.0
1634892943.6875,0,0,12.857350408510003,0.0,2.0
1634892944.15625,0,0,6.017744966665247,0.0,2.0
1634892944.625,0,0,17.48067976208529,0.0,2.0
1634892945.09375,0,0,6.5175433224842125,0.0,2.0
1634892945.5625,0,0,0.0,0.0,2.0
1634892946.03125,0,0,59.78712069660636,0.0,2.0
1634892946.5,0,0,13.08590384235685,0.0,2.0
1634892946.96875,0,0,0.0,0.0,2.0
1634892947.4375,0,0,29.275394101632266,0.0,2.0
1634892947.90625,0,0,31.52656516652322,0.0,2.0
1634892948.375,0,0,4.823747918023408,0.0,2.0
1634892948.84375,0,0,29.244582245327987,0.0,2.0
1634892949.3125,0,0,0.0,0.0,2.0
1634892949.78125,0,0,28.007341054028714,0.0,2.0
1634892950.25,0,0,0.0,0.0,2.0
1634892950.71875,0,0,16.386560421608785,0.0,2.0
1634892951.1875,0,0,12.474032472145565,0.0,2.0
1634892951.65625,0,0,11.696574499614194,0.0,2.0
1634892952.125,0,0,9.155946611164431,0.0,2.0
1634892952.59375,0,0,9.088415548303333,0.0,2.0
1634892953.0625,0,0,12.029828876658291,0.0,2.0
1634892953.53125,0,0,0.0,0.0,2.0
1634892954.0,0,0,12.645988983925507,0.0,2.0
1634892954.46875,0,0,0.0,0.0,2.0
1634892954.9375,0,0,13.065603121486411,0.0,2.0
1634892955.40625,0,0,0.0,0.0,2.0
1634892955.875,0,0,10.956479304916853,0.0,2.0
1634892956.34375,0,0,0.0,0.0,2.0
1634892956.8125,0,0,11.188928050423902,0.0,2.0
1634892957.28125,0,0,0.0,0.0,2.0
1634892957.75,0,0,9.460655255007241,0.0,2.0
1634892958.21875,0,0,10.121886047583867,0.0,2.0
1634892958.6875,0,0,0.0,0.0,2.0
1634892959.15625,0,0,12.47869692499847,0.0,2.0
1634892959.625,0,0,0.0,0.0,2.0
1634892960.09375,0,0,13.553191144942886,0.0,2.0
1634892960.5625,0,0,14.858192777462957,0.0,2.0
1634892961.03125,0,0,15.002189786908101,0.0,2.0
1634892961.5,0,0,13.614930458715813,0.0,2.0
1634892961.96875,0,0,0.0,0.0,2.0
1634892962.4375,0,0,13.121383068946333,0.0,2.0
1634892962.90625,0,0,0.0,0.0,2.0
1634892963.375,0,0,13.048973044097517,0.0,2.0
1634892963.84375,0,0,0.0,0.0,2.0
1634892964.3125,0,0,12.249748458729902,0.0,2.0
1634892964.78125,0,0,0.0,0.0,2.0
1634892965.25,0,0,11.617783528192433,0.0,2.0
1634892965.71875,0,0,0.0,0.0,2.0
1634892966.1875,0,0,13.301271561060162,0.0,2.0
1634892966.65625,0,0,11.023431489466876,0.0,2.0
1634892967.125,0,0,0.0,0.0,2.0
1634892967.59375,0,0,13.634181783986573,0.0,2.0
1634892968.0625,0,0,0.0,0.0,2.0
1634892968.53125,0,0,10.745868656731972,0.0,2.0
1634892969.0,0,0,12.882906641089317,0.0,2.0
1634892969.46875,0,0,0.0,0.0,2.0
1634892969.9375,0,0,13.815364765082546,0.0,2.0
1634892970.40625,0,0,15.02336934234165,0.0,2.0
1634892970.875,0,0,14.70443863481336,0.0,2.0
1634892971.34375,0,0,15.347989120952477,0.0,2.0
1634892971.8125,0,0,0.0,0.0,2.0
1634892972.28125,0,0,14.565014032351382,0.0,2.0
1634892972.75,0,0,0.0,0.0,2.0
1634892973.21875,0,0,14.675817824838038,0.0,2.0
1634892973.6875,0,0,0.0,0.0,2.0
1634892974.15625,0,0,12.560383060326194,0.0,2.0
1634892974.625,0,0,0.0,0.0,2.0
1634892975.09375,0,0,15.848750671744988,0.0,2.0
1634892975.5625,0,0,105.3570161319033,0.0,2.0
1634892976.03125,0,0,0.0,0.0,2.0
1634892976.5,0,0,21.542731568357823,0.0,2.0
1634892976.96875,0,0,13.656464414130172,0.0,2.0
1634892977.4375,0,0,0.0,0.0,2.0
1634892977.90625,0,0,11.663283891799756,0.0,2.0
1634892978.375,0,0,15.493050055110698,0.0,2.0
1634892978.84375,0,0,0.0,0.0,2.0
1634892979.3125,0,0,12.210467001330235,0.0,2.0
1634892979.78125,0,0,0.0,0.0,2.0
1634892980.25,0,0,0.0,0.0,2.0
1634892980.71875,0,0,14.133199675128312,0.0,2.0
1634892981.1875,0,0,0.0,0.0,2.0
1634892981.65625,0,0,16.167191267268393,0.0,2.0
1634892982.125,0,0,14.06476559215018,0.0,2.0
1634892982.59375,0,0,0.0,0.0,2.0
1634892983.0625,0,0,15.645479941204718,0.0,2.0
1634892983.53125,0,0,0.0,0.0,2.0
1634892984.0,0,0,0.0,0.0,2.0
1634892984.46875,0,0,16.65021971375312,0.0,2.0
1634892984.9375,0,0,0.0,0.0,2.0
1634892985.40625,0,0,13.686275624597107,0.0,2.0
1634892985.875,0,0,0.0,0.0,2.0
1634892986.34375,0,0,0.0,0.0,2.0
1634892986.8125,0,0,10.935438065577328,0.0,2.0
1634892987.28125,0,0,0.0,0.0,2.0
1634892987.75,0,0,14.071997893507024,0.0,2.0
1634892988.21875,0,0,13.100135113900052,0.0,2.0
1634892988.6875,0,0,12.512955663620724,0.0,2.0
1634892989.15625,0,0,12.424328117084192,0.0,2.0
1634892989.625,0,0,0.0,0.0,2.0
1634892990.09375,0,0,13.740557675355044,0.0,2.0
1634892990.5625,0,0,14.34086018291196,0.0,2.0
1634892991.03125,0,0,0.0,0.0,2.0
1634892991.5,0,0,16.184568368053775,0.0,2.0
1634892991.96875,0,0,0.0,0.0,2.0
1634892992.4375,0,0,15.412230960588435,0.0,2.0
1634892992.90625,0,0,13.400385721652999,0.0,2.0
1634892993.375,0,0,11.94780374771789,0.0,2.0
1634892993.84375,0,0,12.7528319439241,0.0,2.0
1634892994.3125,0,0,0.0,0.0,2.0
1634892994.78125,0,0,18.693100784432843,0.0,2.0
1634892995.25,0,0,7.1685881254339705,0.0,2.0
1634892995.71875,0,0,5.6197171144443265,0.0,2.0
1634892996.1875,0,0,17.493980340281553,0.0,2.0
1634892996.65625,0,0,9.683116100108649,0.0,2.0
1634892997.125,0,0,0.0,0.0,2.0
1634892997.59375,0,0,16.07158469752436,0.0,2.0
1634892998.0625,0,0,0.0,0.0,2.0
1634892998.53125,0,0,13.432433524201382,0.0,2.0
1634892999.0,0,0,0.0,0.0,2.0
1634892999.46875,0,0,14.915142372056055,0.0,2.0
1634892999.9375,0,0,2.274412940184493,0.0,2.0
1634893000.40625,0,0,0.667182865035551,0.0,2.0
1634893000.875,0,0,32.11669793944126,0.0,2.0
1634893001.34375,0,0,-31.83451751237783,0.0,2.0
1634893001.8125,0,0,143.63437190126854,0.0,2.0
1634893002.28125,0,0,7.8727944582182845,0.0,2.0
1634893002.75,0,0,105.12698905280183,0.0,2.0
1634893003.21875,0,0,0.0,0.0,2.0
1634893003.6875,0,0,17.811399239015188,0.0,2.0
1634893004.15625,0,0,0.0,0.0,2.0
1634893004.625,0,0,29.651302196112905,0.0,2.0
1634893005.09375,0,0,0.0,0.0,2.0
1634893005.5625,0,0,-1.8159500779371456,0.0,2.0
1634893006.03125,0,0,53.701903095746246,0.0,2.0
1634893006.5,0,0,0.0,0.0,2.0
1634893006.96875,0,0,28.74054062795897,0.0,2.0
1634893007.4375,0,0,20.121115790136667,0.0,2.0
1634893007.90625,0,0,75.9558199281371,0.0,2.0
1634893008.375,0,0,-35.55417603080784,0.0,2.0
1634893008.84375,0,0,28.801073841673396,0.0,2.0
1634893009.3125,0,0,2.1762833098044587,0.0,2.0
1634893009.78125,0,0,30.24023314472903,0.0,2.0
1634893010.25,0,0,0.0,0.0,2.0
1634893010.71875,0,0,132.07314064596233,0.0,2.0
1634893011.1875,0,0,0.0,0.0,2.0
1634893011.65625,0,0,66.68584899914086,0.0,2.0
1634893012.125,0,0,0.0,0.0,2.0
1634893012.59375,0,0,35.43468872359446,0.0,2.0
1634893013.0625,0,0,16.16644417612377,0.0,2.0
1634893013.53125,0,0,-17.26431180496803,0.0,2.0
1634893014.0,0,0,51.093479431634215,0.0,2.0
1634893014.46875,0,0,-11.27055240889787,0.0,2.0
1634893014.9375,0,0,19.45247290566626,0.0,2.0
1634893015.40625,0,0,8.378040967857254,0.0,2.0
1634893015.875,0,0,0.0,0.0,2.0
1634893016.34375,0,0,170.92366534089155,0.0,2.0
1634893016.8125,0,0,-15.580177050675362,0.0,2.0
1634893017.28125,0,0,24.883016438657585,0.0,2.0
1634893017.75,0,0,0.0,0.0,2.0
1634893018.21875,0,0,4.169866998631896,0.0,2.0
1634893018.6875,0,0,0.0,0.0,2.0
1634893019.15625,0,0,8.825994482015146,0.0,2.0
1634893019.625,0,0,0.0,0.0,2.0
1634893020.09375,0,0,12.167423659402601,0.0,2.0
1634893020.5625,0,0,0.0,0.0,2.0
1634893021.03125,0,0,10.264469658042653,0.0,2.0
1634893021.5,0,0,8.613068726976717,0.0,2.0
1634893021.96875,0,0,4.793827492353735,0.0,2.0
1634893022.4375,0,0,8.303119014460384,0.0,2.0
1634893022.90625,0,0,0.0,0.0,2.0
1634893023.375,0,0,7.627354240788934,0.0,2.0
1634893023.84375,0,0,7.333227653393995,0.0,2.0
1634893024.3125,0,0,4.458157729741692,0.0,2.0
1634893024.78125,0,0,6.9607027407778785,0.0,2.0
1634893025.25,0,0,5.0129411975741585,0.0,2.0
1634893025.71875,0,0,6.666910315037132,0.0,2.0
1634893026.1875,0,0,13.748436780882379,0.0,2.0
1634893026.65625,0,0,7.945913640183297,0.0,2.0
1634893027.125,0,0,3.8954825666754935,0.0,2.0
1634893027.59375,0,0,3.4845091760591576,0.0,2.0
1634893028.0625,0,0,5.93161907754001,0.0,2.0
1634893028.53125,0,0,9.353335650578684,0.0,2.0
1634893029.0,0,0,-6.757614284565953,0.0,2.0
1634893029.46875,0,0,11.690099499470117,0.0,2.0
1634893029.9375,0,0,16.699322266060843,0.0,2.0
1634893030.40625,0,0,2.808586764645875,0.0,2.0
1634893030.875,0,0,-6.78772801283297,0.0,2.0
1634893031.34375,0,0,3.918877552300462,0.0,2.0
1634893031.8125,0,0,11.052647691643038,0.0,2.0
1634893032.28125,0,0,0.0,0.0,2.0
1634893032.75,0,0,9.096837449346214,0.0,2.0
1634893033.21875,0,0,0.0,0.0,2.0
1634893033.6875,0,0,10.669671528648657,0.0,2.0
1634893034.15625,0,0,0.0,0.0,2.0
1634893034.625,0,0,10.73246905137539,0.0,2.0
1634893035.09375,0,0,0.0,0.0,2.0
1634893035.5625,0,0,10.36357137447948,0.0,2.0
1634893036.03125,0,0,0.0,0.0,2.0
1634893036.5,0,0,8.887993109950182,0.0,2.0
1634893036.96875,0,0,0.0,0.0,2.0
1634893037.4375,0,0,10.832808164336353,0.0,2.0
1634893037.90625,0,0,0.0,0.0,2.0
1634893038.375,0,0,12.007804165538717,0.0,2.0
1634893038.84375,0,0,0.0,0.0,2.0
1634893039.3125,0,0,10.485377710505928,0.0,2.0
1634893039.78125,0,0,13.020773251083465,0.0,2.0
1634893040.25,0,0,7.369727813124354,0.0,2.0
1634893040.71875,0,0,12.320463555874687,0.0,2.0
1634893041.1875,0,0,0.0,0.0,2.0
1634893041.65625,0,0,11.475450419623915,0.0,2.0
1634893042.125,0,0,0.0,0.0,2.0
1634893042.59375,0,0,10.550129582297979,0.0,2.0
1634893043.0625,0,0,7.442037369235643,0.0,2.0
1634893043.53125,0,0,7.747418984437533,0.0,2.0
1634893044.0,0,0,5.377402590116013,0.0,2.0
1634893044.46875,0,0,10.866831004734248,0.0,2.0
1634893044.9375,0,0,0.0,0.0,2.0
1634893045.40625,0,0,8.943107564290953,0.0,2.0
1634893045.875,0,0,0.0,0.0,2.0
1634893046.34375,0,0,9.60453660026412,0.0,2.0
1634893046.8125,0,0,9.478377510957525,0.0,2.0
1634893047.28125,0,0,0.0,0.0,2.0
1634893047.75,0,0,9.908847066730843,0.0,2.0
1634893048.21875,0,0,6.721635698470618,0.0,2.0
1634893048.6875,0,0,8.530687794843189,0.0,2.0
1634893049.15625,0,0,0.0,0.0,2.0
1634893049.625,0,0,10.07113679340577,0.0,2.0
1634893050.09375,0,0,0.0,0.0,2.0
1634893050.5625,0,0,12.87397905803581,0.0,2.0
1634893051.03125,0,0,0.0,0.0,2.0
1634893051.5,0,0,26.175003568380525,0.0,2.0
1634893051.96875,0,0,0.0,0.0,2.0
1634893052.4375,0,0,123.90506436816905,0.0,2.0
1634893052.90625,0,0,207.42638530602795,0.0,2.0
1634893053.375,0,0,0.0,0.0,2.0
1634893053.84375,0,0,2.468789728760152,0.0,2.0
1634893054.3125,0,0,52.770095160819366,0.0,2.0
1634893054.78125,0,0,71.63608671345905,0.0,2.0
1634893055.25,0,0,0.0,0.0,2.0
1634893055.71875,0,0,0.0,0.0,2.0
1634893056.1875,0,0,57.944446505027564,0.0,2.0
1634893056.65625,0,0,2.5656313526352434,0.0,2.0
1634893057.125,0,0,1.2107267846799032,0.0,2.0
1634893057.59375,0,0,18.99544088316155,0.0,2.0
1634893058.0625,0,0,12.527095155004858,0.0,2.0
1634893058.53125,0,0,0.0,0.0,2.0
1634893059.0,0,0,12.55317221234306,0.0,2.0
1634893059.46875,0,0,0.0,0.0,2.0
1634893059.9375,0,0,11.720058344604956,0.0,2.0
1634893060.40625,0,0,0.0,0.0,2.0
1634893060.875,0,0,9.761378713520344,0.0,2.0
1634893061.34375,0,0,12.091921095781023,0.0,2.0
1634893061.8125,0,0,0.0,0.0,2.0
1634893062.28125,0,0,13.54010542800009,0.0,2.0
1634893062.75,0,0,0.0,0.0,2.0
1634893063.21875,0,0,11.73819306666844,0.0,2.0
1634893063.6875,0,0,7.252649254888484,0.0,2.0
1634893064.15625,0,0,0.0,0.0,2.0
1634893064.625,0,0,7.137631426223145,0.0,2.0
1634893065.09375,0,0,6.843635239226385,0.0,2.0
1634893065.5625,0,0,0.0,0.0,2.0
1634893066.03125,0,0,9.749372349605748,0.0,2.0
1634893066.5,0,0,13.319559480192474,0.0,2.0
1634893066.96875,0,0,0.0,0.0,2.0
1634893067.4375,0,0,7.826313003709699,0.0,2.0
1634893067.90625,0,0,9.952318634059411,0.0,2.0
1634893068.375,0,0,0.0,0.0,2.0
1634893068.84375,0,0,6.623783969026174,0.0,2.0
1634893069.3125,0,0,6.448877513125337,0.0,2.0
1634893069.78125,0,0,5.103146817802301,0.0,2.0
1634893070.25,0,0,2.5627098303770013,0.0,2.0
1634893070.71875,0,0,10.265364172223993,0.0,2.0
1634893071.1875,0,0,0.0,0.0,2.0
1634893071.65625,0,0,12.016385016815102,0.0,2.0
1634893072.125,0,0,7.743064518980675,0.0,2.0
1634893072.59375,0,0,5.470759538971352,0.0,2.0
1634893073.0625,0,0,4.482037315696542,0.0,2.0
1634893073.53125,0,0,6.535284257691798,0.0,2.0
1634893074.0,0,0,8.648022634303294,0.0,2.0
1634893074.46875,0,0,8.943017529961839,0.0,2.0
1634893074.9375,0,0,4.683056554047909,0.0,2.0
1634893075.40625,0,0,3.766884372664966,0.0,2.0
1634893075.875,0,0,4.501406178899012,0.0,2.0
1634893076.34375,0,0,0.0,0.0,2.0
1634893076.8125,0,0,5.250248832171539,0.0,2.0
1634893077.28125,0,0,5.3706216876095105,0.0,2.0
1634893077.75,0,0,0.6321888594672911,0.0,2.0
1634893078.21875,0,0,4.351177605513,0.0,2.0
1634893078.6875,0,0,6.2401018405534785,0.0,2.0
1634893079.15625,0,0,3.3777850744697626,0.0,2.0
1634893079.625,0,0,8.425955733876517,0.0,2.0
1634893080.09375,0,0,4.859984581745348,0.0,2.0
1634893080.5625,0,0,-0.4524098520350823,0.0,2.0
1634893081.03125,0,0,15.934633195767407,0.0,2.0
1634893081.5,0,0,10.032506880466611,0.0,2.0
1634893081.96875,0,0,0.07686207858351675,0.0,2.0
1634893082.4375,0,0,7.070058939281477,0.0,2.0
1634893082.90625,0,0,4.9189626629586725,0.0,2.0
1634893083.375,0,0,6.332221718686471,0.0,2.0
1634893083.84375,0,0,0.0,0.0,2.0
1634893084.3125,0,0,5.197536376856176,0.0,2.0
1634893084.78125,0,0,10.03394372364524,0.0,2.0
1634893085.25,0,0,0.0,0.0,2.0
1634893085.71875,0,0,31.060821621263965,0.0,2.0
1634893086.1875,0,0,-5.653661501905074,0.0,2.0
1634893086.65625,0,0,27.045312194991535,0.0,2.0
1634893087.125,0,0,0.0,0.0,2.0
1634893087.59375,0,0,5.758440510458298,0.0,2.0
1634893088.0625,0,0,6.1881995864847905,0.0,2.0
1634893088.53125,0,0,0.0,0.0,2.0
1634893089.0,0,0,6.7776076539915735,0.0,2.0
1634893089.46875,0,0,0.0,0.0,2.0
1634893089.9375,0,0,10.90995713481352,0.0,2.0
1634893090.40625,0,0,0.0,0.0,2.0
1634893090.875,0,0,15.289442322032775,0.0,2.0
1634893091.34375,0,0,0.0,0.0,2.0
1634893091.8125,0,0,6.814301369302871,0.0,2.0
1634893092.28125,0,0,8.63534823200255,0.0,2.0
1634893092.75,0,0,7.241813095653323,0.0,2.0
1634893093.21875,0,0,10.277110934041183,0.0,2.0
1634893093.6875,0,0,0.0,0.0,2.0
1634893094.15625,0,0,4.108337676182661,0.0,2.0
1634893094.625,0,0,6.174064301525562,0.0,2.0
1634893095.09375,0,0,5.315813092965036,0.0,2.0
1634893095.5625,0,0,6.129736941119239,0.0,2.0
1634893096.03125,0,0,0.0,0.0,2.0
1634893096.5,0,0,4.991811949262953,0.0,2.0
1634893096.96875,0,0,0.0,0.0,2.0
1634893097.4375,0,0,4.534102605252706,0.0,2.0
1634893097.90625,0,0,3.9571629588881696,0.0,2.0
1634893098.375,0,0,5.393455218547539,0.0,2.0
1634893098.84375,0,0,4.257002707378944,0.0,2.0
1634893099.3125,0,0,0.0,0.0,2.0
1634893099.78125,0,0,4.655347209918787,0.0,2.0
1634893100.25,0,0,0.0,0.0,2.0
1634893100.71875,0,0,4.6215871585331865,0.0,2.0
1634893101.1875,0,0,4.498731312439619,0.0,2.0
1634893101.65625,0,0,3.090802995030644,0.0,2.0
1634893102.125,0,0,3.618203732401862,0.0,2.0
1634893102.59375,0,0,0.0,0.0,2.0
1634893103.0625,0,0,5.095482574870903,0.0,2.0
1634893103.53125,0,0,0.0,0.0,2.0
1634893104.0,0,0,6.819122518423689,0.0,2.0
1634893104.46875,0,0,9.275145646889882,0.0,2.0
1634893104.9375,0,0,0.0,0.0,2.0
1634893105.40625,0,0,-4.504637790385579,0.0,2.0
1634893105.875,0,0,73.85867064467318,0.0,2.0
1634893106.34375,0,0,0.0,0.0,2.0
1634893106.8125,0,0,10.44017703564559,0.0,2.0
1634893107.28125,0,0,0.0,0.0,2.0
1634893107.75,0,0,0.0,0.0,2.0
1634893108.21875,0,0,17.54639368164844,0.0,2.0
1634893108.6875,0,0,0.0,0.0,2.0
1634893109.15625,0,0,2.8426278719860267,0.0,2.0
1634893109.625,0,0,0.0,0.0,2.0
1634893110.09375,0,0,57.54569627395204,0.0,2.0
1634893110.5625,0,0,120.85236488337151,0.0,2.0
1634893111.03125,0,0,0.0,0.0,2.0
1634893111.5,0,0,33.820958091576166,0.0,2.0
1634893111.96875,0,0,15.538188602754357,0.0,2.0
1634893112.4375,0,0,0.0,0.0,2.0
1634893112.90625,0,0,65.01465249758358,0.0,2.0
1634893113.375,0,0,0.0,0.0,2.0
1634893113.84375,0,0,69.01721508096081,0.0,2.0
1634893114.3125,0,0,0.0,0.0,2.0
1634893114.78125,0,0,257.00266301048435,0.0,2.0
1634893115.25,0,0,0.0,0.0,2.0
1634893115.71875,0,0,0.0,0.0,2.0
1634893116.1875,0,0,52.7050917295926,0.0,2.0
1634893116.65625,0,0,0.0,0.0,2.0
1634893117.125,0,0,91.97007844153087,0.0,2.0
1634893117.59375,0,0,-15.683700950263322,0.0,2.0
1634893118.0625,0,0,8.59655066608159,0.0,2.0
1634893118.53125,0,0,5.796381305169342,0.0,2.0
1634893119.0,0,0,9.946954200927816,0.0,2.0
1634893119.46875,0,0,3.6793563415082553,0.0,2.0
1634893119.9375,0,0,3.496312670268468,0.0,2.0
1634893120.40625,0,0,43.64940078601006,0.0,2.0
1634893120.875,0,0,79.63216125969788,0.0,2.0
1634893121.34375,0,0,0.0,0.0,2.0
1634893121.8125,0,0,0.0,0.0,2.0
1634893122.28125,0,0,53.28349874558226,0.0,2.0
1634893122.75,0,0,-9.680735203253212,0.0,2.0
1634893123.21875,0,0,8.864807256555524,0.0,2.0
1634893123.6875,0,0,23.570498695987002,0.0,2.0
1634893124.15625,0,0,14.87239573650913,0.0,2.0
1634893124.625,0,0,28.852669488266535,0.0,2.0
1634893125.09375,0,0,-0.2571043875943556,0.0,2.0
1634893125.5625,0,0,17.11840386905877,0.0,2.0
1634893126.03125,0,0,32.439105749449524,0.0,2.0
1634893126.5,0,0,13.008490935038171,0.0,2.0
1634893126.96875,0,0,30.53641264010299,0.0,2.0
1634893127.4375,0,0,24.179397420607216,0.0,2.0
1634893127.90625,0,0,13.829971188807418,0.0,2.0
1634893128.375,0,0,7.0330318213934495,0.0,2.0
1634893128.84375,0,0,-18.091058377980712,0.0,2.0
1634893129.3125,0,0,85.87875783410031,0.0,2.0
1634893129.78125,0,0,0.0,0.0,2.0
1634893130.25,0,0,43.224321605534364,0.0,2.0
1634893130.71875,0,0,3.412603670378753,0.0,2.0
1634893131.1875,0,0,10.926644081622058,0.0,2.0
1634893131.65625,0,0,0.6173018688743106,0.0,2.0
1634893132.125,0,0,19.065910441742602,0.0,2.0
1634893132.59375,0,0,31.723876868398758,0.0,2.0
1634893133.0625,0,0,34.13855122058752,0.0,2.0
1634893133.53125,0,0,12.88643763036139,0.0,2.0
1634893134.0,0,0,20.09451663815429,0.0,2.0
1634893134.46875,0,0,-3.076327230360723,0.0,2.0
1634893134.9375,0,0,35.65856305133443,0.0,2.0
1634893135.40625,0,0,24.76746515252007,0.0,2.0
1634893135.875,0,0,12.573651161239361,0.0,2.0
1634893136.34375,0,0,-2.417929376338138,0.0,2.0
1634893136.8125,0,0,15.858456659679677,0.0,2.0
1634893137.28125,0,0,41.52609179420677,0.0,2.0
1634893137.75,0,0,-2.7689163033482633,0.0,2.0
1634893138.21875,0,0,18.274686618675187,0.0,2.0
1634893138.6875,0,0,112.9650253718972,0.0,2.0
1634893139.15625,0,0,33.726997963422434,0.0,2.0
1634893139.625,0,0,0.0,0.0,2.0
1634893140.09375,0,0,9.05121885384708,0.0,2.0
1634893140.5625,0,0,10.228466703342287,0.0,2.0
1634893141.03125,0,0,0.7121284980259401,0.0,2.0
1634893141.5,0,0,3.6866745682774495,0.0,2.0
1634893141.96875,0,0,9.557899493989426,0.0,2.0
1634893142.4375,0,0,0.0,0.0,2.0
1634893142.90625,0,0,5.361880903993794,0.0,2.0
1634893143.375,0,0,6.631122733262075,0.0,2.0
1634893143.84375,0,0,8.28199191324424,0.0,2.0
1634893144.3125,0,0,4.926280494846845,0.0,2.0
1634893144.78125,0,0,0.0,0.0,2.0
1634893145.25,0,0,9.155019240306393,0.0,2.0
1634893145.71875,0,0,5.411434761977456,0.0,2.0
1634893146.1875,0,0,0.0,0.0,2.0
1634893146.65625,0,0,10.448759987248676,0.0,2.0
1634893147.125,0,0,0.9156095573159059,0.0,2.0
1634893147.59375,0,0,4.494505406914616,0.0,2.0
1634893148.0625,0,0,7.945195505961668,0.0,2.0
1634893148.53125,0,0,0.0,0.0,2.0
1634893149.0,0,0,5.959070553241587,0.0,2.0
1634893149.46875,0,0,7.4053166048351065,0.0,2.0
1634893149.9375,0,0,0.0,0.0,2.0
1634893150.40625,0,0,6.666978101506071,0.0,2.0
1634893150.875,0,0,9.186712416261319,0.0,2.0
1634893151.34375,0,0,4.624493976375126,0.0,2.0
1634893151.8125,0,0,8.277697813704448,0.0,2.0
1634893152.28125,0,0,7.590272943177124,0.0,2.0
1634893152.75,0,0,0.0,0.0,2.0
1634893153.21875,0,0,12.378507102162768,0.0,2.0
1634893153.6875,0,0,0.0,0.0,2.0
1634893154.15625,0,0,5.855395240701387,0.0,2.0
1634893154.625,0,0,7.503623920068047,0.0,2.0
1634893155.09375,0,0,0.0,0.0,2.0
1634893155.5625,0,0,7.308306637195405,0.0,2.0
1634893156.03125,0,0,4.756625637516405,0.0,2.0
1634893156.5,0,0,0.0,0.0,2.0
1634893156.96875,0,0,8.320800875798755,0.0,2.0
1634893157.4375,0,0,0.0,0.0,2.0
1634893157.90625,0,0,6.288776672094939,0.0,2.0
1634893158.375,0,0,7.408724791061734,0.0,2.0
1634893158.84375,0,0,0.0,0.0,2.0
1634893159.3125,0,0,7.372762149119516,0.0,2.0
1634893159.78125,0,0,0.0,0.0,2.0
1634893160.25,0,0,10.239160465570048,0.0,2.0
1634893160.71875,0,0,2.53083640387415,0.0,2.0
1634893161.1875,0,0,20.183604631591198,0.0,2.0
1634893161.65625,0,0,0.0,0.0,2.0
1634893162.125,0,0,9.776965447022475,0.0,2.0
1634893162.59375,0,0,-4.816776978385322,0.0,2.0
1634893163.0625,0,0,2.5858784087546844,0.0,2.0
1634893163.53125,0,0,11.272276797098902,0.0,2.0
1634893164.0,0,0,0.0,0.0,2.0
1634893164.46875,0,0,7.590872574359016,0.0,2.0
1634893164.9375,0,0,5.900337999616531,0.0,2.0
1634893165.40625,0,0,3.756228818767519,0.0,2.0
1634893165.875,0,0,3.381458481678435,0.0,2.0
1634893166.34375,0,0,0.0,0.0,2.0
1634893166.8125,0,0,4.414655810165024,0.0,2.0
1634893167.28125,0,0,3.1882701694642073,0.0,2.0
1634893167.75,0,0,0.0,0.0,2.0
1634893168.21875,0,0,5.5910083750018975,0.0,2.0
1634893168.6875,0,0,2.214257498996003,0.0,2.0
1634893169.15625,0,0,3.943333727756676,0.0,2.0
1634893169.625,0,0,2.297561456791719,0.0,2.0
1634893170.09375,0,0,0.0,0.0,2.0
1634893170.5625,0,0,0.0,0.0,2.0
1634893171.03125,0,0,3.3004001259966804,0.0,2.0
1634893171.5,0,0,4.0903861277932965,0.0,2.0
1634893171.96875,0,0,9.947670030535582,0.0,2.0
1634893172.4375,0,0,0.0,0.0,2.0
1634893172.90625,0,0,3.571604262482658,0.0,2.0
1634893173.375,0,0,0.0,0.0,2.0
1634893173.84375,0,0,0.0,0.0,2.0
1634893174.3125,0,0,6.309615679441357,0.0,2.0
1634893174.78125,0,0,4.4462858084899946,0.0,2.0
1634893175.25,0,0,4.596071071706792,0.0,2.0
1634893175.71875,0,0,6.266639068994439,0.0,2.0
1634893176.1875,0,0,0.0,0.0,2.0
1634893176.65625,0,0,2.6368060178152124,0.0,2.0
1634893177.125,0,0,3.4267624477985597,0.0,2.0
1634893177.59375,0,0,6.844271414235611,0.0,2.0
1634893178.0625,0,0,4.250589105922432,0.0,2.0
1634893178.53125,0,0,6.245462345609321,0.0,2.0
1634893179.0,0,0,3.2095232702760232,0.0,2.0
1634893179.46875,0,0,4.624121072905175,0.0,2.0
1634893179.9375,0,0,7.78307002063057,0.0,2.0
1634893180.40625,0,0,0.0,0.0,2.0
1634893180.875,0,0,3.6939853503753604,0.0,2.0
1634893181.34375,0,0,5.965883182767938,0.0,2.0
1634893181.8125,0,0,5.1480582450254255,0.0,2.0
1634893182.28125,0,0,5.113830054708217,0.0,2.0
1634893182.75,0,0,0.0,0.0,2.0
1634893183.21875,0,0,7.831558321733514,0.0,2.0
1634893183.6875,0,0,6.607198081029926,0.0,2.0
1634893184.15625,0,0,0.0,0.0,2.0
1634893184.625,0,0,7.660401439333064,0.0,2.0
1634893185.09375,0,0,0.0,0.0,2.0
1634893185.5625,0,0,6.847631674722202,0.0,2.0
1634893186.03125,0,0,8.386611111592664,0.0,2.0
1634893186.5,0,0,0.0,0.0,2.0
1634893186.96875,0,0,9.376463358818146,0.0,2.0
1634893187.4375,0,0,7.585355972809684,0.0,2.0
1634893187.90625,0,0,10.598179485348554,0.0,2.0
1634893188.375,0,0,9.22578813894891,0.0,2.0
1634893188.84375,0,0,0.0,0.0,2.0
1634893189.3125,0,0,8.362391890838756,0.0,2.0
1634893189.78125,0,0,8.657824513691256,0.0,2.0
1634893190.25,0,0,8.499608659218888,0.0,2.0
1634893190.71875,0,0,11.100517565103665,0.0,2.0
1634893191.1875,0,0,0.0,0.0,2.0
1634893191.65625,0,0,11.080569290525775,0.0,2.0
1634893192.125,0,0,12.572570917603532,0.0,2.0
1634893192.59375,0,0,0.0,0.0,2.0
1634893193.0625,0,0,12.126639455347933,0.0,2.0
1634893193.53125,0,0,13.356530661889861,0.0,2.0
1634893194.0,0,0,12.59849496884998,0.0,2.0
1634893194.46875,0,0,14.692373546364697,0.0,2.0
1634893194.9375,0,0,13.518853810142915,0.0,2.0
1634893195.40625,0,0,11.890478294815292,0.0,2.0
1634893195.875,0,0,12.583667670683345,0.0,2.0
1634893196.34375,0,0,0.0,0.0,2.0
1634893196.8125,0,0,9.994340941004406,0.0,2.0
1634893197.28125,0,0,11.976147170994818,0.0,2.0
1634893197.75,0,0,10.780946234895161,0.0,2.0
1634893198.21875,0,0,8.425251547503848,0.0,2.0
1634893198.6875,0,0,9.241906801110611,0.0,2.0
1634893199.15625,0,0,13.680555767076912,0.0,2.0
1634893199.625,0,0,9.641002708313067,0.0,2.0
1634893200.09375,0,0,7.88282966884534,0.0,2.0
1634893200.5625,0,0,12.62457683563415,0.0,2.0
1634893201.03125,0,0,0.0,0.0,2.0
1634893201.5,0,0,10.710150937153974,0.0,2.0
1634893201.96875,0,0,10.21162353936994,0.0,2.0
1634893202.4375,0,0,3.938793468629986,0.0,2.0
1634893202.90625,0,0,10.670332886262962,0.0,2.0
1634893203.375,0,0,7.612641852770012,0.0,2.0
1634893203.84375,0,0,8.19918408398849,0.0,2.0
1634893204.3125,0,0,10.987631880478894,0.0,2.0
1634893204.78125,0,0,0.0,0.0,2.0
1634893205.25,0,0,9.364582706588457,0.0,2.0
1634893205.71875,0,0,11.873082716843529,0.0,2.0
1634893206.1875,0,0,0.0,0.0,2.0
1634893206.65625,0,0,8.33026293072868,0.0,2.0
1634893207.125,0,0,9.86034059227972,0.0,2.0
1634893207.59375,0,0,0.0,0.0,2.0
1634893208.0625,0,0,11.233601978097234,0.0,2.0
1634893208.53125,0,0,6.658458494466994,0.0,2.0
1634893209.0,0,0,5.97230789895093,0.0,2.0
1634893209.46875,0,0,11.019861684589403,0.0,2.0
1634893209.9375,0,0,9.724212542458808,0.0,2.0
1634893210.40625,0,0,8.119977488850271,0.0,2.0
1634893210.875,0,0,11.857294264162038,0.0,2.0
1634893211.34375,0,0,0.0,0.0,2.0
1634893211.8125,0,0,5.364655640568815,0.0,2.0
1634893212.28125,0,0,0.0,0.0,2.0
1634893212.75,0,0,11.583199287393208,0.0,2.0
1634893213.21875,0,0,9.60013477493535,0.0,2.0
1634893213.6875,0,0,0.0,0.0,2.0
1634893214.15625,0,0,7.162130248819833,0.0,2.0
1634893214.625,0,0,11.680997924473406,0.0,2.0
1634893215.09375,0,0,0.0,0.0,2.0
1634893215.5625,0,0,8.859341488718012,0.0,2.0
1634893216.03125,0,0,7.741631736866444,0.0,2.0
1634893216.5,0,0,8.09943703619341,0.0,2.0
1634893216.96875,0,0,28.66937418963654,0.0,2.0
1634893217.4375,0,0,29.43934893089731,0.0,2.0
1634893217.90625,0,0,11.872575990202575,0.0,2.0
1634893218.375,0,0,40.179504767335686,0.0,2.0
1634893218.84375,0,0,16.132504432137697,0.0,2.0
1634893219.3125,0,0,0.0,0.0,2.0
1634893219.78125,0,0,3.6226815284370724,0.0,2.0
1634893220.25,0,0,23.049689871555362,0.0,2.0
1634893220.71875,0,0,-3.230833995812655,0.0,2.0
1634893221.1875,0,0,-12.798095649819556,0.0,2.0
1634893221.65625,0,0,35.63399504521503,0.0,2.0
1634893222.125,0,0,-20.00569646073998,0.0,2.0
1634893222.59375,0,0,0.0,0.0,2.0
1634893223.0625,0,0,12.832658554385313,0.0,2.0
1634893223.53125,0,0,5.109519594817969,0.0,2.0
1634893224.0,0,0,0.0,0.0,2.0
1634893224.46875,0,0,4.786876401916128,0.0,2.0
1634893224.9375,0,0,6.614731224377486,0.0,2.0
1634893225.40625,0,0,4.244002294833565,0.0,2.0
1634893225.875,0,0,5.682481209112177,0.0,2.0
1634893226.34375,0,0,0.0,0.0,2.0
1634893226.8125,0,0,8.955918875570047,0.0,2.0
1634893227.28125,0,0,0.0,0.0,2.0
1634893227.75,0,0,0.0,0.0,2.0
1634893228.21875,0,0,10.474492221382476,0.0,2.0
1634893228.6875,0,0,11.099399606623951,0.0,2.0
1634893229.15625,0,0,5.084579072557328,0.0,2.0
1634893229.625,0,0,0.0,0.0,2.0
1634893230.09375,0,0,11.674119837817557,0.0,2.0
1634893230.5625,0,0,14.012393176504487,0.0,2.0
1634893231.03125,0,0,0.0,0.0,2.0
1634893231.5,0,0,9.017537944168831,0.0,2.0
1634893231.96875,0,0,12.839108037613887,0.0,2.0
1634893232.4375,0,0,0.0,0.0,2.0
1634893232.90625,0,0,9.810620868898681,0.0,2.0
1634893233.375,0,0,9.59382283133538,0.0,2.0
1634893233.84375,0,0,0.0,0.0,2.0
1634893234.3125,0,0,9.414929535637537,0.0,2.0
1634893234.78125,0,0,6.754418277930289,0.0,2.0
1634893235.25,0,0,3.256154250159276,0.0,2.0
1634893235.71875,0,0,12.457192836959484,0.0,2.0
1634893236.1875,0,0,0.0,0.0,2.0
1634893236.65625,0,0,5.970711796701969,0.0,2.0
1634893237.125,0,0,8.310964597567304,0.0,2.0
1634893237.59375,0,0,0.0,0.0,2.0
1634893238.0625,0,0,9.24111186912689,0.0,2.0
1634893238.53125,0,0,10.444007296879807,0.0,2.0
1634893239.0,0,0,0.0,0.0,2.0
1634893239.46875,0,0,9.36889391262771,0.0,2.0
1634893239.9375,0,0,9.353507214936238,0.0,2.0
1634893240.40625,0,0,0.0,0.0,2.0
1634893240.875,0,0,12.7108622471238,0.0,2.0
1634893241.34375,0,0,0.0,0.0,2.0
1634893241.8125,0,0,13.299999994644729,0.0,2.0
1634893242.28125,0,0,9.19032513153844,0.0,2.0
1634893242.75,0,0,9.225678896650138,0.0,2.0
1634893243.21875,0,0,14.043904944049864,0.0,2.0
1634893243.6875,0,0,0.0,0.0,2.0
1634893244.15625,0,0,13.394329888961282,0.0,2.0
1634893244.625,0,0,0.0,0.0,2.0
1634893245.09375,0,0,11.676698076678774,0.0,2.0
1634893245.5625,0,0,13.08529386171615,0.0,2.0
1634893246.03125,0,0,0.0,0.0,2.0
1634893246.5,0,0,13.833001414603418,0.0,2.0
1634893246.96875,0,0,12.250345707096951,0.0,2.0
1634893247.4375,0,0,13.21193498781393,0.0,2.0
1634893247.90625,0,0,12.251375308260005,0.0,2.0
1634893248.375,0,0,0.0,0.0,2.0
1634893248.84375,0,0,12.06887815682678,0.0,2.0
1634893249.3125,0,0,12.676321820253321,0.0,2.0
1634893249.78125,0,0,0.0,0.0,2.0
1634893250.25,0,0,14.342839085982124,0.0,2.0
1634893250.71875,0,0,0.0,0.0,2.0
1634893251.1875,0,0,0.0,0.0,2.0
1634893251.65625,0,0,15.097676115896968,0.0,2.0
1634893252.125,0,0,0.0,0.0,2.0
1634893252.59375,0,0,11.030399240023268,0.0,2.0
1634893253.0625,0,0,11.807054818951638,0.0,2.0
1634893253.53125,0,0,11.88327767288695,0.0,2.0
1634893254.0,0,0,9.75329943815506,0.0,2.0
1634893254.46875,0,0,0.0,0.0,2.0
1634893254.9375,0,0,10.977155167705627,0.0,2.0
1634893255.40625,0,0,8.210541312489871,0.0,2.0
