timestamp,mean_pulse_rate,pulse_rate_std,mean_pulse_amplitude,pulse_amplitude_std,block
1629793467.4375,0,0,59.55449842401986,0.0,1.0
1629793467.90625,0,0,0.0,0.0,1.0
1629793468.375,0,0,44.93671840331354,0.0,1.0
1629793468.84375,0,0,130.27873459481913,0.0,1.0
1629793469.3125,0,0,22.130645313068033,0.0,1.0
1629793469.78125,0,0,0.0,0.0,1.0
1629793470.25,0,0,87.52092754933943,0.0,1.0
1629793470.71875,0,0,0.0,0.0,1.0
1629793471.1875,0,0,94.58322499408838,0.0,1.0
1629793471.65625,0,0,0.0,0.0,1.0
1629793472.125,0,0,395.157731573664,0.0,1.0
1629793472.59375,0,0,-23.127722586653356,0.0,1.0
1629793473.0625,0,0,76.01754432806281,0.0,1.0
1629793473.53125,0,0,34.26394864756076,0.0,1.0
1629793474.0,0,0,0.0,0.0,1.0
1629793474.46875,0,0,236.29612392295246,0.0,1.0
1629793474.9375,0,0,6.413279424756728,0.0,1.0
1629793475.40625,0,0,79.19882355289772,0.0,1.0
1629793475.875,0,0,31.104854519473037,0.0,1.0
1629793476.34375,0,0,0.0,0.0,1.0
1629793476.8125,0,0,0.0,0.0,1.0
1629793477.28125,0,0,54.168937891681814,0.0,1.0
1629793477.75,0,0,0.0,0.0,1.0
1629793478.21875,0,0,68.27077145113336,0.0,1.0
1629793478.6875,0,0,-43.36450666971088,0.0,1.0
1629793479.15625,0,0,68.86390923185766,0.0,1.0
1629793479.625,0,0,0.0,0.0,1.0
1629793480.09375,0,0,44.2295646584851,0.0,1.0
1629793480.5625,0,0,0.0,0.0,1.0
1629793481.03125,0,0,0.0,0.0,1.0
1629793481.5,0,0,54.20204657916431,0.0,1.0
1629793481.96875,0,0,30.3272433979954,0.0,1.0
1629793482.4375,0,0,48.494254492885666,0.0,1.0
1629793482.90625,0,0,0.0,0.0,1.0
1629793483.375,0,0,0.0,0.0,1.0
1629793483.84375,0,0,31.70126217044997,0.0,1.0
1629793484.3125,0,0,0.0,0.0,1.0
1629793484.78125,0,0,35.277719922061564,0.0,1.0
1629793485.25,0,0,0.0,0.0,1.0
1629793485.71875,0,0,0.0,0.0,1.0
1629793486.1875,0,0,47.01541306743318,0.0,1.0
1629793486.65625,0,0,25.327022584416916,0.0,1.0
1629793487.125,0,0,0.0,0.0,1.0
1629793487.59375,0,0,217.10776920705007,0.0,1.0
1629793488.0625,0,0,-0.35398731832916097,0.0,1.0
1629793488.53125,0,0,0.0,0.0,1.0
1629793489.0,0,0,45.38533958856698,0.0,1.0
1629793489.46875,0,0,0.0,0.0,1.0
1629793489.9375,0,0,43.87327984697127,0.0,1.0
1629793490.40625,0,0,0.0,0.0,1.0
1629793490.875,0,0,60.29914576221195,0.0,1.0
1629793491.34375,0,0,46.6621060477847,0.0,1.0
1629793491.8125,0,0,0.0,0.0,1.0
1629793492.28125,0,0,46.12035637980194,0.0,1.0
1629793492.75,0,0,0.0,0.0,1.0
1629793493.21875,0,0,30.017674139811863,0.0,1.0
1629793493.6875,0,0,0.0,0.0,1.0
1629793494.15625,0,0,38.45179151245313,0.0,1.0
1629793494.625,0,0,0.0,0.0,1.0
1629793495.09375,0,0,38.802817213543776,0.0,1.0
1629793495.5625,0,0,0.0,0.0,1.0
1629793496.03125,0,0,37.0623508988661,0.0,1.0
1629793496.5,0,0,37.69203926814208,0.0,1.0
1629793496.96875,0,0,46.46561699007454,0.0,1.0
1629793497.4375,0,0,0.0,0.0,1.0
1629793497.90625,0,0,0.0,0.0,1.0
1629793498.375,0,0,71.72097288428044,0.0,1.0
1629793498.84375,0,0,0.0,0.0,1.0
1629793499.3125,0,0,54.139971418414476,0.0,1.0
1629793499.78125,0,0,0.0,0.0,1.0
1629793500.25,0,0,41.18467846650404,0.0,1.0
1629793500.71875,0,0,12.386429248444085,0.0,1.0
1629793501.1875,0,0,46.68079825461298,0.0,1.0
1629793501.65625,0,0,14.494971402347753,0.0,1.0
1629793502.125,0,0,0.0,0.0,1.0
1629793502.59375,0,0,23.517033412765898,0.0,1.0
1629793503.0625,0,0,15.84920436720532,0.0,1.0
1629793503.53125,0,0,10.097927597518947,0.0,1.0
1629793504.0,0,0,24.702439311815485,0.0,1.0
1629793504.46875,0,0,27.669651480540985,0.0,1.0
1629793504.9375,0,0,0.0,0.0,1.0
1629793505.40625,0,0,68.19077592167437,0.0,1.0
1629793505.875,0,0,-31.66477163510834,0.0,1.0
1629793506.34375,0,0,17.08563665898411,0.0,1.0
1629793506.8125,0,0,0.0,0.0,1.0
1629793507.28125,0,0,16.39685211670248,0.0,1.0
1629793507.75,0,0,17.126977719502335,0.0,1.0
1629793508.21875,0,0,0.0,0.0,1.0
1629793508.6875,0,0,52.400318360152625,0.0,1.0
1629793509.15625,0,0,0.0,0.0,1.0
1629793509.625,0,0,33.247284900881894,0.0,1.0
1629793510.09375,0,0,0.0,0.0,1.0
1629793510.5625,0,0,23.351885621415494,0.0,1.0
1629793511.03125,0,0,20.88396032198139,0.0,1.0
1629793511.5,0,0,0.0,0.0,1.0
1629793511.96875,0,0,24.950153570992263,0.0,1.0
1629793512.4375,0,0,0.0,0.0,1.0
1629793512.90625,0,0,40.92248523969589,0.0,1.0
1629793513.375,0,0,0.0,0.0,1.0
1629793513.84375,0,0,0.0,0.0,1.0
1629793514.3125,0,0,53.91619439511671,0.0,1.0
1629793514.78125,0,0,0.0,0.0,1.0
1629793515.25,0,0,36.669123202587585,0.0,1.0
1629793515.71875,0,0,0.0,0.0,1.0
1629793516.1875,0,0,62.447547169347445,0.0,1.0
1629793516.65625,0,0,-6.465504166401974,0.0,1.0
1629793517.125,0,0,36.490158122549936,0.0,1.0
1629793517.59375,0,0,-9.97117102334323,0.0,1.0
1629793518.0625,0,0,82.6430950467651,0.0,1.0
1629793518.53125,0,0,-50.59468770912522,0.0,1.0
1629793519.0,0,0,63.86102666369696,0.0,1.0
1629793519.46875,0,0,78.95327076976902,0.0,1.0
1629793519.9375,0,0,61.77112427769581,0.0,1.0
1629793520.40625,0,0,0.0,0.0,1.0
1629793520.875,0,0,38.62379082480806,0.0,1.0
1629793521.34375,0,0,0.0,0.0,1.0
1629793521.8125,0,0,54.223646316734865,0.0,1.0
1629793522.28125,0,0,0.0,0.0,1.0
1629793522.75,0,0,0.0,0.0,1.0
1629793523.21875,0,0,53.51332220157935,0.0,1.0
1629793523.6875,0,0,0.0,0.0,1.0
1629793524.15625,0,0,54.846209274051674,0.0,1.0
1629793524.625,0,0,0.0,0.0,1.0
1629793525.09375,0,0,27.249697576856303,0.0,1.0
1629793525.5625,0,0,48.8376341937094,0.0,1.0
1629793526.03125,0,0,176.9364182813954,0.0,1.0
1629793526.5,0,0,-56.053405992230715,0.0,1.0
1629793526.96875,0,0,-19.848355106867896,0.0,1.0
1629793527.4375,0,0,80.17379202501671,0.0,1.0
1629793527.90625,0,0,0.0,0.0,1.0
1629793528.375,0,0,53.37133338775913,0.0,1.0
1629793528.84375,0,0,0.0,0.0,1.0
1629793529.3125,0,0,62.80383312400764,0.0,1.0
1629793529.78125,0,0,0.0,0.0,1.0
1629793530.25,0,0,0.0,0.0,1.0
1629793530.71875,0,0,55.460473464106556,0.0,1.0
1629793531.1875,0,0,0.0,0.0,1.0
1629793531.65625,0,0,33.82482669651242,0.0,1.0
1629793532.125,0,0,0.0,0.0,1.0
1629793532.59375,0,0,95.06204559017895,0.0,1.0
1629793533.0625,0,0,0.0,0.0,1.0
1629793533.53125,0,0,158.75038137756468,0.0,1.0
1629793534.0,0,0,-69.48580622104927,0.0,1.0
1629793534.46875,0,0,65.2244439097137,0.0,1.0
1629793534.9375,0,0,45.54133484248939,0.0,1.0
1629793535.40625,0,0,0.0,0.0,1.0
1629793535.875,0,0,0.0,0.0,1.0
1629793536.34375,0,0,-23.466551143441606,0.0,1.0
1629793536.8125,0,0,65.98183457793068,0.0,1.0
1629793537.28125,0,0,0.0,0.0,1.0
1629793537.75,0,0,93.93046017888086,0.0,1.0
1629793538.21875,0,0,44.64067693410352,0.0,1.0
1629793538.6875,0,0,26.01954170915842,0.0,1.0
1629793539.15625,0,0,25.08377874280696,0.0,1.0
1629793539.625,0,0,6.906306448854332,0.0,1.0
1629793540.09375,0,0,0.0,0.0,1.0
1629793540.5625,0,0,-21.698297885535993,0.0,1.0
1629793541.03125,0,0,45.15080605900347,0.0,1.0
1629793541.5,0,0,41.01870275713231,0.0,1.0
1629793541.96875,0,0,0.0,0.0,1.0
1629793542.4375,0,0,60.63666294878411,0.0,1.0
1629793542.90625,0,0,58.06325739832748,0.0,1.0
1629793543.375,0,0,77.46651794173849,0.0,1.0
1629793543.84375,0,0,0.0,0.0,1.0
1629793544.3125,0,0,0.0,0.0,1.0
1629793544.78125,0,0,0.0,0.0,1.0
1629793545.25,0,0,66.48516377365739,0.0,1.0
1629793545.71875,0,0,92.49456747764958,0.0,1.0
1629793546.1875,0,0,53.594382381639264,0.0,1.0
1629793546.65625,0,0,0.0,0.0,1.0
1629793547.125,0,0,197.20699591164097,0.0,1.0
1629793547.59375,0,0,0.0,0.0,1.0
1629793548.0625,0,0,116.62497757163544,0.0,1.0
1629793548.53125,0,0,0.0,0.0,1.0
1629793549.0,0,0,90.75619321979073,0.0,1.0
1629793549.46875,0,0,-147.31931829623844,0.0,1.0
1629793549.9375,0,0,126.91450294763212,0.0,1.0
1629793550.40625,0,0,0.0,0.0,1.0
1629793550.875,0,0,74.8800377603143,0.0,1.0
1629793551.34375,0,0,115.98954272876553,0.0,1.0
1629793551.8125,0,0,89.69728240920405,0.0,1.0
1629793552.28125,0,0,0.0,0.0,1.0
1629793552.75,0,0,0.0,0.0,1.0
1629793553.21875,0,0,142.047568944109,0.0,1.0
1629793553.6875,0,0,87.41776895041465,0.0,1.0
1629793554.15625,0,0,0.0,0.0,1.0
1629793554.625,0,0,0.0,0.0,1.0
1629793555.09375,0,0,187.85943224129605,0.0,1.0
1629793555.5625,0,0,-109.23599112727301,0.0,1.0
1629793556.03125,0,0,107.18624109428744,0.0,1.0
1629793556.5,0,0,0.0,0.0,1.0
1629793556.96875,0,0,161.6852891386586,0.0,1.0
1629793557.4375,0,0,-78.35723905492154,0.0,1.0
1629793557.90625,0,0,96.87962276391775,0.0,1.0
1629793558.375,0,0,0.0,0.0,1.0
1629793558.84375,0,0,185.66719758605655,0.0,1.0
1629793559.3125,0,0,-75.45691386862889,0.0,1.0
1629793559.78125,0,0,114.98185010456235,0.0,1.0
1629793560.25,0,0,0.0,0.0,1.0
1629793560.71875,0,0,171.1231031045404,0.0,1.0
1629793561.1875,0,0,0.0,0.0,1.0
1629793561.65625,0,0,65.62591173215458,0.0,1.0
1629793562.125,0,0,0.0,0.0,1.0
1629793562.59375,0,0,132.85755585968846,0.0,1.0
1629793563.0625,0,0,-9.527555972025219,0.0,1.0
1629793563.53125,0,0,60.02505294088467,0.0,1.0
1629793564.0,0,0,0.0,0.0,1.0
1629793564.46875,0,0,0.0,0.0,1.0
1629793564.9375,0,0,41.166771405339794,0.0,1.0
1629793565.40625,0,0,51.98453742289378,0.0,1.0
1629793565.875,0,0,0.0,0.0,1.0
1629793566.34375,0,0,68.68955230505064,0.0,1.0
1629793566.8125,0,0,38.022846410153434,0.0,1.0
1629793567.28125,0,0,61.43286012896255,0.0,1.0
1629793567.75,0,0,0.0,0.0,1.0
1629793568.21875,0,0,43.949385112130095,0.0,1.0
1629793568.6875,0,0,26.834646945127997,0.0,1.0
1629793569.15625,0,0,58.22848920084499,0.0,1.0
1629793569.625,0,0,0.0,0.0,1.0
1629793570.09375,0,0,80.71634371565086,0.0,1.0
1629793570.5625,0,0,31.690023037997133,0.0,1.0
1629793571.03125,0,0,64.73881306998702,0.0,1.0
1629793571.5,0,0,5.166703717455044,0.0,1.0
1629793571.96875,0,0,140.30590936045087,0.0,1.0
1629793572.4375,0,0,0.0,0.0,1.0
1629793572.90625,0,0,139.04538387584753,0.0,1.0
1629793573.375,0,0,0.0,0.0,1.0
1629793573.84375,0,0,-78.17647353302979,0.0,1.0
1629793574.3125,0,0,130.8505047923036,0.0,1.0
1629793574.78125,0,0,0.0,0.0,1.0
1629793575.25,0,0,70.24227350661036,0.0,1.0
1629793575.71875,0,0,86.21529673226205,0.0,1.0
1629793576.1875,0,0,0.0,0.0,1.0
1629793576.65625,0,0,76.90482426901524,0.0,1.0
1629793577.125,0,0,0.0,0.0,1.0
1629793577.59375,0,0,48.248315553932365,0.0,1.0
1629793578.0625,0,0,0.0,0.0,1.0
1629793578.53125,0,0,72.24771167786827,0.0,1.0
1629793579.0,0,0,-37.139854894299475,0.0,1.0
1629793579.46875,0,0,75.77459037496646,0.0,1.0
1629793579.9375,0,0,0.0,0.0,1.0
1629793580.40625,0,0,61.87353971399677,0.0,1.0
1629793580.875,0,0,0.0,0.0,1.0
1629793581.34375,0,0,49.71387347292956,0.0,1.0
1629793581.8125,0,0,68.26412408620257,0.0,1.0
1629793582.28125,0,0,46.954252374177415,0.0,1.0
1629793582.75,0,0,0.0,0.0,1.0
1629793583.21875,0,0,44.828409336049425,0.0,1.0
1629793583.6875,0,0,0.0,0.0,1.0
1629793584.15625,0,0,36.24658751328442,0.0,1.0
1629793584.625,0,0,26.858179885383308,0.0,1.0
1629793585.09375,0,0,63.911529689981336,0.0,1.0
1629793585.5625,0,0,0.0,0.0,1.0
1629793586.03125,0,0,24.21228457235612,0.0,1.0
1629793586.5,0,0,0.0,0.0,1.0
1629793586.96875,0,0,90.93379213654518,0.0,1.0
1629793587.4375,0,0,31.009196470676496,0.0,1.0
1629793587.90625,0,0,4.022458437531002,0.0,1.0
1629793588.375,0,0,45.65432826994314,0.0,1.0
1629793588.84375,0,0,0.0,0.0,1.0
1629793589.3125,0,0,28.165557996731998,0.0,1.0
1629793589.78125,0,0,8.16966807617165,0.0,1.0
1629793590.25,0,0,111.42883398159293,0.0,1.0
1629793590.71875,0,0,19.438548855368033,0.0,1.0
1629793591.1875,0,0,128.86491178321157,0.0,1.0
1629793591.65625,0,0,-34.895399265225606,0.0,1.0
1629793592.125,0,0,42.40682013991281,0.0,1.0
1629793592.59375,0,0,0.0,0.0,1.0
1629793593.0625,0,0,127.23080008056753,0.0,1.0
1629793593.53125,0,0,67.16915630427759,0.0,1.0
1629793594.0,0,0,0.0,0.0,1.0
1629793594.46875,0,0,0.0,0.0,1.0
1629793594.9375,0,0,133.4960800842783,0.0,1.0
1629793595.40625,0,0,90.39049030973179,0.0,1.0
1629793595.875,0,0,0.0,0.0,1.0
1629793596.34375,0,0,61.14628611337925,0.0,1.0
1629793596.8125,0,0,-3.681983052864921,0.0,1.0
1629793597.28125,0,0,40.62594771227671,0.0,1.0
1629793597.75,0,0,40.770983126820184,0.0,1.0
1629793598.21875,0,0,0.0,0.0,1.0
1629793598.6875,0,0,0.0,0.0,1.0
1629793599.15625,0,0,206.13403145388236,0.0,1.0
1629793599.625,0,0,75.85196138787715,0.0,1.0
1629793600.09375,0,0,0.0,0.0,1.0
1629793600.5625,0,0,136.578278673485,0.0,1.0
1629793601.03125,0,0,0.0,0.0,1.0
1629793601.5,0,0,93.41189526966913,0.0,1.0
1629793601.96875,0,0,0.0,0.0,1.0
1629793602.4375,0,0,133.28405094772057,0.0,1.0
1629793602.90625,0,0,0.0,0.0,1.0
1629793603.375,0,0,77.07519496291839,0.0,1.0
1629793603.84375,0,0,0.0,0.0,1.0
1629793604.3125,0,0,96.89149498205065,0.0,1.0
1629793604.78125,0,0,0.0,0.0,1.0
1629793605.25,0,0,0.0,0.0,1.0
1629793605.71875,0,0,39.25394895741101,0.0,1.0
1629793606.1875,0,0,-2.9111608263718893,0.0,1.0
1629793606.65625,0,0,234.60720368846526,0.0,1.0
1629793607.125,0,0,0.0,0.0,1.0
1629793607.59375,0,0,141.81358390637885,0.0,1.0
1629793608.0625,0,0,0.0,0.0,1.0
1629793608.53125,0,0,126.30387001007053,0.0,1.0
1629793609.0,0,0,104.42941236011269,0.0,1.0
1629793609.46875,0,0,0.0,0.0,1.0
1629793609.9375,0,0,0.0,0.0,1.0
1629793610.40625,0,0,149.81095783038518,0.0,1.0
1629793610.875,0,0,31.289502947942985,0.0,1.0
1629793611.34375,0,0,0.0,0.0,1.0
1629793611.8125,0,0,73.20251788749275,0.0,1.0
1629793612.28125,0,0,82.48984521623939,0.0,1.0
1629793612.75,0,0,43.689381030341856,0.0,1.0
1629793613.21875,0,0,0.0,0.0,1.0
1629793613.6875,0,0,55.128527758577924,0.0,1.0
1629793614.15625,0,0,0.0,0.0,1.0
1629793614.625,0,0,-48.66180305418535,0.0,1.0
1629793615.09375,0,0,-57.70401210725581,0.0,1.0
1629793615.5625,0,0,92.03561191955652,0.0,1.0
1629793616.03125,0,0,43.972621919904924,0.0,1.0
1629793616.5,0,0,0.0,0.0,1.0
1629793616.96875,0,0,0.0,0.0,1.0
1629793617.4375,0,0,69.23855863852053,0.0,1.0
1629793617.90625,0,0,69.81078752287502,0.0,1.0
1629793618.375,0,0,2.7689216553122034,0.0,1.0
1629793618.84375,0,0,0.0,0.0,1.0
1629793619.3125,0,0,77.84808448317877,0.0,1.0
1629793619.78125,0,0,27.83232746242488,0.0,1.0
1629793620.25,0,0,36.25400365197604,0.0,1.0
1629793620.71875,0,0,0.0,0.0,1.0
1629793621.1875,0,0,56.134537502134776,0.0,1.0
1629793621.65625,0,0,0.0,0.0,1.0
1629793622.125,0,0,0.0,0.0,1.0
1629793622.59375,0,0,7.9666809726854755,0.0,1.0
1629793623.0625,0,0,68.49277339303919,0.0,1.0
1629793623.53125,0,0,0.0,0.0,1.0
1629793624.0,0,0,0.0,0.0,1.0
1629793624.46875,0,0,26.713703089951338,0.0,1.0
1629793624.9375,0,0,86.04600543769332,0.0,1.0
1629793625.40625,0,0,0.0,0.0,1.0
1629793625.875,0,0,155.91975536883203,0.0,1.0
1629793626.34375,0,0,-27.07618780818701,0.0,1.0
1629793626.8125,0,0,91.90176647173516,0.0,1.0
1629793627.28125,0,0,0.0,0.0,1.0
1629793627.75,0,0,64.42144185684816,0.0,1.0
1629793628.21875,0,0,17.100171330701585,0.0,1.0
1629793628.6875,0,0,83.59556768463645,0.0,1.0
1629793629.15625,0,0,0.0,0.0,1.0
1629793629.625,0,0,111.5811598241062,0.0,1.0
1629793630.09375,0,0,19.88793679593059,0.0,1.0
1629793630.5625,0,0,111.63243046002803,0.0,1.0
1629793631.03125,0,0,0.0,0.0,1.0
1629793631.5,0,0,0.0,0.0,1.0
1629793631.96875,0,0,100.47712139253633,0.0,1.0
1629793632.4375,0,0,87.69226985016684,0.0,1.0
1629793632.90625,0,0,0.0,0.0,1.0
1629793633.375,0,0,86.19406544399061,0.0,1.0
1629793633.84375,0,0,0.0,0.0,1.0
1629793634.3125,0,0,74.23873389079516,0.0,1.0
1629793634.78125,0,0,0.0,0.0,1.0
1629793635.25,0,0,55.98791572407366,0.0,1.0
1629793635.71875,0,0,40.37588621397988,0.0,1.0
1629793636.1875,0,0,0.0,0.0,1.0
1629793636.65625,0,0,48.881634150123,0.0,1.0
1629793637.125,0,0,0.0,0.0,1.0
1629793637.59375,0,0,53.88027805564136,0.0,1.0
1629793638.0625,0,0,0.0,0.0,1.0
1629793638.53125,0,0,39.307633216527975,0.0,1.0
1629793639.0,0,0,0.0,0.0,1.0
1629793639.46875,0,0,0.0,0.0,1.0
1629793639.9375,0,0,0.0,0.0,1.0
1629793640.40625,0,0,0.0,0.0,1.0
1629793640.875,0,0,38.74590514357071,0.0,1.0
1629793641.34375,0,0,0.0,0.0,1.0
1629793641.8125,0,0,23.59032765632801,0.0,1.0
1629793642.28125,0,0,8.190459919931191,0.0,1.0
1629793642.75,0,0,29.64945602976084,0.0,1.0
1629793643.21875,0,0,0.0,0.0,1.0
1629793643.6875,0,0,96.27427625142552,0.0,1.0
1629793644.15625,0,0,0.0,0.0,1.0
1629793644.625,0,0,131.1049854298173,0.0,1.0
1629793645.09375,0,0,59.37168941530995,0.0,1.0
1629793645.5625,0,0,10.153590869510564,0.0,1.0
1629793646.03125,0,0,12.274137142156384,0.0,1.0
1629793646.5,0,0,0.0,0.0,1.0
1629793646.96875,0,0,222.4741818120201,0.0,1.0
1629793647.4375,0,0,94.51991642927028,0.0,1.0
1629793647.90625,0,0,0.0,0.0,1.0
1629793648.375,0,0,76.79494758965535,0.0,1.0
1629793648.84375,0,0,13.27491482098131,0.0,1.0
1629793649.3125,0,0,0.0,0.0,1.0
1629793649.78125,0,0,70.17731983168018,0.0,1.0
1629793650.25,0,0,81.5464785480552,0.0,1.0
1629793650.71875,0,0,37.769914656937516,0.0,1.0
1629793651.1875,0,0,0.0,0.0,1.0
1629793651.65625,0,0,65.85042751640081,0.0,1.0
1629793652.125,0,0,0.0,0.0,1.0
1629793652.59375,0,0,10.624339239341099,0.0,1.0
1629793653.0625,0,0,23.708814933195264,0.0,1.0
1629793653.53125,0,0,53.413157469088304,0.0,1.0
1629793654.0,0,0,44.81654199339431,0.0,1.0
1629793654.46875,0,0,0.0,0.0,1.0
1629793654.9375,0,0,86.70475481133045,0.0,1.0
1629793655.40625,0,0,0.0,0.0,1.0
1629793655.875,0,0,25.21845555946035,0.0,1.0
1629793656.34375,0,0,0.0,0.0,1.0
1629793656.8125,0,0,29.207944253613803,0.0,1.0
1629793657.28125,0,0,63.256030265066244,0.0,1.0
1629793657.75,0,0,0.0,0.0,1.0
1629793658.21875,0,0,0.0,0.0,1.0
1629793658.6875,0,0,63.221062590568934,0.0,1.0
1629793659.15625,0,0,0.0,0.0,1.0
1629793659.625,0,0,60.25668579754387,0.0,1.0
1629793660.09375,0,0,0.0,0.0,1.0
1629793660.5625,0,0,64.82609123808939,0.0,1.0
1629793661.03125,0,0,0.0,0.0,1.0
1629793661.5,0,0,88.89119654578498,0.0,1.0
1629793661.96875,0,0,146.39506255163337,0.0,1.0
1629793662.4375,0,0,0.0,0.0,1.0
1629793662.90625,0,0,0.0,0.0,1.0
1629793663.375,0,0,0.0,0.0,1.0
1629793663.84375,0,0,152.90836876651275,0.0,1.0
1629793664.3125,0,0,0.0,0.0,1.0
1629793664.78125,0,0,101.46890093041029,0.0,1.0
1629793665.25,0,0,0.0,0.0,1.0
1629793665.71875,0,0,178.01590042544305,0.0,1.0
1629793666.1875,0,0,0.0,0.0,1.0
1629793666.65625,0,0,145.87361869322936,0.0,1.0
1629793667.125,0,0,0.0,0.0,1.0
1629793667.59375,0,0,188.3296194869384,0.0,1.0
1629793668.0625,0,0,0.0,0.0,1.0
1629793668.53125,0,0,172.91728260550963,0.0,1.0
1629793669.0,0,0,0.0,0.0,1.0
1629793669.46875,0,0,217.3091466406375,0.0,1.0
1629793669.9375,0,0,-114.99927232800765,0.0,1.0
1629793670.40625,0,0,159.5349932614189,0.0,1.0
1629793670.875,0,0,0.0,0.0,1.0
1629793671.34375,0,0,0.0,0.0,1.0
1629793671.8125,0,0,281.60717186172155,0.0,1.0
1629793672.28125,0,0,-158.22047065239693,0.0,1.0
1629793672.75,0,0,219.47531073239455,0.0,1.0
1629793673.21875,0,0,0.0,0.0,1.0
1629793673.6875,0,0,189.01493108212955,0.0,1.0
1629793674.15625,0,0,-37.79999582621411,0.0,1.0
1629793674.625,0,0,120.44418048993336,0.0,1.0
1629793675.09375,0,0,0.0,0.0,1.0
1629793675.5625,0,0,35.69828501656849,0.0,1.0
1629793676.03125,0,0,25.10491164690185,0.0,1.0
1629793676.5,0,0,88.4141864576283,0.0,1.0
1629793676.96875,0,0,0.0,0.0,1.0
1629793677.4375,0,0,43.20117748729016,0.0,1.0
1629793677.90625,0,0,51.53552805445013,0.0,1.0
1629793678.375,0,0,92.1113693759822,0.0,1.0
1629793678.84375,0,0,58.70550142295191,0.0,1.0
1629793679.3125,0,0,0.0,0.0,1.0
1629793679.78125,0,0,58.43918055169284,0.0,1.0
1629793680.25,0,0,0.0,0.0,1.0
1629793680.71875,0,0,74.2191989433602,0.0,1.0
1629793681.1875,0,0,0.0,0.0,1.0
1629793681.65625,0,0,60.4754377795013,0.0,1.0
1629793682.125,0,0,0.0,0.0,1.0
1629793682.59375,0,0,0.0,0.0,1.0
1629793683.0625,0,0,46.16158094300436,0.0,1.0
1629793683.53125,0,0,70.8495421918429,0.0,1.0
1629793684.0,0,0,0.0,0.0,1.0
1629793684.46875,0,0,91.81788444305211,0.0,1.0
1629793684.9375,0,0,80.78249240224507,0.0,1.0
1629793685.40625,0,0,87.78428896168587,0.0,1.0
1629793685.875,0,0,0.0,0.0,1.0
1629793686.34375,0,0,0.0,0.0,1.0
1629793686.8125,0,0,225.39838101484563,0.0,1.0
1629793687.28125,0,0,-136.80206084762708,0.0,1.0
1629793687.75,0,0,148.503976855907,0.0,1.0
1629793688.21875,0,0,0.0,0.0,1.0
1629793688.6875,0,0,50.81532677578824,0.0,1.0
1629793689.15625,0,0,29.33407568107903,0.0,1.0
1629793689.625,0,0,92.28022171593514,0.0,1.0
1629793690.09375,0,0,0.0,0.0,1.0
1629793690.5625,0,0,77.22813119956051,0.0,1.0
1629793691.03125,0,0,0.0,0.0,1.0
1629793691.5,0,0,63.24068663840878,0.0,1.0
1629793691.96875,0,0,0.0,0.0,1.0
1629793692.4375,0,0,57.44585311614109,0.0,1.0
1629793692.90625,0,0,0.0,0.0,1.0
1629793693.375,0,0,0.0,0.0,1.0
1629793693.84375,0,0,88.86696759080925,0.0,1.0
1629793694.3125,0,0,0.0,0.0,1.0
1629793694.78125,0,0,160.07405392256874,0.0,1.0
1629793695.25,0,0,0.0,0.0,1.0
1629793695.71875,0,0,74.0034997441705,0.0,1.0
1629793696.1875,0,0,0.0,0.0,1.0
1629793696.65625,0,0,49.996185358828534,0.0,1.0
1629793697.125,0,0,0.0,0.0,1.0
1629793697.59375,0,0,0.0,0.0,1.0
1629793698.0625,0,0,0.0,0.0,1.0
1629793698.53125,0,0,0.0,0.0,1.0
1629793699.0,0,0,85.15422402905932,0.0,1.0
1629793699.46875,0,0,57.0763558205279,0.0,1.0
1629793699.9375,0,0,32.66075567713444,0.0,1.0
1629793700.40625,0,0,69.75200550222377,0.0,1.0
1629793700.875,0,0,25.96163111523103,0.0,1.0
1629793701.34375,0,0,0.0,0.0,1.0
1629793701.8125,0,0,84.57530520734227,0.0,1.0
1629793702.28125,0,0,0.0,0.0,1.0
1629793702.75,0,0,0.32455440494972604,0.0,1.0
1629793703.21875,0,0,0.0,0.0,1.0
1629793703.6875,0,0,95.85726303055151,0.0,1.0
1629793704.15625,0,0,50.939602141576096,0.0,1.0
1629793704.625,0,0,-10.001513582434063,0.0,1.0
1629793705.09375,0,0,0.0,0.0,1.0
1629793705.5625,0,0,122.24549355033429,0.0,1.0
1629793706.03125,0,0,-62.32932573122453,0.0,1.0
1629793706.5,0,0,71.84807627584038,0.0,1.0
1629793706.96875,0,0,0.0,0.0,1.0
1629793707.4375,0,0,105.04450711793103,0.0,1.0
1629793707.90625,0,0,-46.49643238501385,0.0,1.0
1629793708.375,0,0,58.510891913560116,0.0,1.0
1629793708.84375,0,0,0.0,0.0,1.0
1629793709.3125,0,0,89.64928004984205,0.0,1.0
1629793709.78125,0,0,-43.59410247722561,0.0,1.0
1629793710.25,0,0,28.967915236386805,0.0,1.0
1629793710.71875,0,0,30.65566458684759,0.0,1.0
1629793711.1875,0,0,41.28221924251106,0.0,1.0
1629793711.65625,0,0,0.0,0.0,1.0
1629793712.125,0,0,45.42653656839737,0.0,1.0
1629793712.59375,0,0,0.0,0.0,1.0
1629793713.0625,0,0,92.80208910122455,0.0,1.0
1629793713.53125,0,0,0.0,0.0,1.0
1629793714.0,0,0,79.10368872125134,0.0,1.0
1629793714.46875,0,0,0.0,0.0,1.0
1629793714.9375,0,0,162.6691999413904,0.0,1.0
1629793715.40625,0,0,-54.458913476744236,0.0,1.0
1629793715.875,0,0,82.89598017878893,0.0,1.0
1629793716.34375,0,0,0.0,0.0,1.0
1629793716.8125,0,0,0.0,0.0,1.0
1629793717.28125,0,0,193.3424050628255,0.0,1.0
1629793717.75,0,0,-153.61696614780303,0.0,1.0
1629793718.21875,0,0,125.64737100743118,0.0,1.0
1629793718.6875,0,0,0.0,0.0,1.0
1629793719.15625,0,0,221.405424390747,0.0,1.0
1629793719.625,0,0,-59.4741775378587,0.0,1.0
1629793720.09375,0,0,93.9846015462388,0.0,1.0
1629793720.5625,0,0,18.961758890210504,0.0,1.0
1629793721.03125,0,0,0.0,0.0,1.0
1629793721.5,0,0,43.11596551220989,0.0,1.0
1629793721.96875,0,0,94.33559407255275,0.0,1.0
1629793722.4375,0,0,0.0,0.0,1.0
1629793722.90625,0,0,52.218925973743566,0.0,1.0
1629793723.375,0,0,63.05152659298437,0.0,1.0
1629793723.84375,0,0,0.0,0.0,1.0
1629793724.3125,0,0,0.0,0.0,1.0
1629793724.78125,0,0,-115.66304876932567,0.0,1.0
1629793725.25,0,0,85.03940068022872,0.0,1.0
1629793725.71875,0,0,0.0,0.0,1.0
1629793726.1875,0,0,0.0,0.0,1.0
1629793726.65625,0,0,216.19612599425187,0.0,1.0
1629793727.125,0,0,-112.61702500092053,0.0,1.0
1629793727.59375,0,0,102.79748653945691,0.0,1.0
1629793728.0625,0,0,0.0,0.0,1.0
1629793728.53125,0,0,0.0,0.0,1.0
1629793729.0,0,0,46.5487069613367,0.0,1.0
1629793729.46875,0,0,0.0,0.0,1.0
1629793729.9375,0,0,50.053600613381185,0.0,1.0
1629793730.40625,0,0,123.3125248698225,0.0,1.0
1629793730.875,0,0,83.23758987056826,0.0,1.0
1629793731.34375,0,0,0.0,0.0,1.0
1629793731.8125,0,0,0.0,0.0,1.0
1629793732.28125,0,0,160.68592094986528,0.0,1.0
1629793732.75,0,0,71.9327178433289,0.0,1.0
1629793733.21875,0,0,69.69482807133542,0.0,1.0
1629793733.6875,0,0,0.0,0.0,1.0
1629793734.15625,0,0,176.3342863840821,0.0,1.0
1629793734.625,0,0,-140.23646186613072,0.0,1.0
1629793735.09375,0,0,106.03396726712745,0.0,1.0
1629793735.5625,0,0,0.0,0.0,1.0
1629793736.03125,0,0,230.39923396019708,0.0,1.0
1629793736.5,0,0,0.0,0.0,1.0
1629793736.96875,0,0,96.79077248579087,0.0,1.0
1629793737.4375,0,0,0.0,0.0,1.0
1629793737.90625,0,0,204.11957546821787,0.0,1.0
1629793738.375,0,0,0.0,0.0,1.0
1629793738.84375,0,0,45.217977095203516,0.0,1.0
1629793739.3125,0,0,24.05272150632678,0.0,1.0
1629793739.78125,0,0,6.292384400105048,0.0,1.0
1629793740.25,0,0,160.4103900651678,0.0,1.0
1629793740.71875,0,0,11.57667767685973,0.0,1.0
1629793741.1875,0,0,75.19547770126216,0.0,1.0
1629793741.65625,0,0,99.81227137597845,0.0,1.0
1629793742.125,0,0,0.0,0.0,1.0
1629793742.59375,0,0,90.52476141666958,0.0,1.0
1629793743.0625,0,0,0.0,0.0,1.0
1629793743.53125,0,0,249.0112721834554,0.0,1.0
1629793744.0,0,0,-222.52331206340295,0.0,1.0
1629793744.46875,0,0,133.6664843146129,0.0,1.0
1629793744.9375,0,0,0.0,0.0,1.0
1629793745.40625,0,0,36.87047213805667,0.0,1.0
1629793745.875,0,0,44.72789782897246,0.0,1.0
1629793746.34375,0,0,0.0,0.0,1.0
1629793746.8125,0,0,49.110832201386316,0.0,1.0
1629793747.28125,0,0,0.0,0.0,1.0
1629793747.75,0,0,81.83619028364414,0.0,1.0
1629793748.21875,0,0,0.0,0.0,1.0
1629793748.6875,0,0,66.08322615584319,0.0,1.0
1629793749.15625,0,0,0.0,0.0,1.0
1629793749.625,0,0,32.54021095988552,0.0,1.0
1629793750.09375,0,0,39.689814871238625,0.0,1.0
1629793750.5625,0,0,0.0,0.0,1.0
1629793751.03125,0,0,34.698894337845616,0.0,1.0
1629793751.5,0,0,0.0,0.0,1.0
1629793751.96875,0,0,44.80128438312064,0.0,1.0
1629793752.4375,0,0,0.0,0.0,1.0
1629793752.90625,0,0,29.090690276421864,0.0,1.0
1629793753.375,0,0,32.233077933845166,0.0,1.0
1629793753.84375,0,0,29.122950891229387,0.0,1.0
1629793754.3125,0,0,38.354872191638975,0.0,1.0
1629793754.78125,0,0,0.0,0.0,1.0
1629793755.25,0,0,41.57098761444582,0.0,1.0
1629793755.71875,0,0,0.0,0.0,1.0
1629793756.1875,0,0,45.26549546803224,0.0,1.0
1629793756.65625,0,0,0.0,0.0,1.0
1629793757.125,0,0,79.04004295659355,0.0,1.0
1629793757.59375,0,0,0.0,0.0,1.0
1629793758.0625,0,0,69.06949013665374,0.0,1.0
1629793758.53125,0,0,0.0,0.0,1.0
1629793759.0,0,0,0.0,0.0,1.0
1629793759.46875,0,0,65.15127059239613,0.0,1.0
1629793759.9375,0,0,0.0,0.0,1.0
1629793760.40625,0,0,32.234000776341716,0.0,1.0
1629793760.875,0,0,118.29082198623139,0.0,1.0
1629793761.34375,0,0,0.0,0.0,1.0
1629793761.8125,0,0,15.781451955436838,0.0,1.0
1629793762.28125,0,0,0.0,0.0,1.0
1629793762.75,0,0,169.2990545775351,0.0,1.0
1629793763.21875,0,0,79.53705495059512,0.0,1.0
1629793763.6875,0,0,0.0,0.0,1.0
1629793764.15625,0,0,0.0,0.0,1.0
1629793764.625,0,0,195.02149046433357,0.0,1.0
1629793765.09375,0,0,0.0,0.0,1.0
1629793765.5625,0,0,0.0,0.0,1.0
1629793766.03125,0,0,0.0,0.0,1.0
1629793766.5,0,0,180.17923941087804,0.0,1.0
1629793766.96875,0,0,0.0,0.0,1.0
1629793767.4375,0,0,90.38504628404252,0.0,1.0
1629793767.90625,0,0,0.0,0.0,1.0
1629793768.375,0,0,143.98698081049616,0.0,1.0
1629793768.84375,0,0,0.0,0.0,1.0
1629793769.3125,0,0,72.2261428135081,0.0,1.0
1629793769.78125,0,0,0.0,0.0,1.0
1629793770.25,0,0,158.41412686500257,0.0,1.0
1629793770.71875,0,0,0.0,0.0,1.0
1629793771.1875,0,0,92.44502027754824,0.0,1.0
1629793771.65625,0,0,0.0,0.0,1.0
1629793772.125,0,0,141.38439699666935,0.0,1.0
1629793772.59375,0,0,0.0,0.0,1.0
1629793773.0625,0,0,76.12330044920395,0.0,1.0
1629793773.53125,0,0,0.0,0.0,1.0
1629793774.0,0,0,0.0,0.0,1.0
1629793774.46875,0,0,118.55478374866861,0.0,1.0
1629793774.9375,0,0,-78.09090356936194,0.0,1.0
1629793775.40625,0,0,0.0,0.0,1.0
1629793775.875,0,0,0.0,0.0,1.0
1629793776.34375,0,0,136.99560604022759,0.0,1.0
1629793776.8125,0,0,-65.68268593447699,0.0,1.0
1629793777.28125,0,0,77.67438051539891,0.0,1.0
1629793777.75,0,0,0.0,0.0,1.0
1629793778.21875,0,0,142.465688038876,0.0,1.0
1629793778.6875,0,0,-89.01381653290382,0.0,1.0
1629793779.15625,0,0,102.8787326525537,0.0,1.0
1629793779.625,0,0,0.0,0.0,1.0
1629793780.09375,0,0,133.90487195070088,0.0,1.0
1629793780.5625,0,0,-118.92627494748425,0.0,1.0
1629793781.03125,0,0,90.67179642561985,0.0,1.0
1629793781.5,0,0,0.0,0.0,1.0
1629793781.96875,0,0,137.74973081193525,0.0,1.0
1629793782.4375,0,0,-21.69494656607813,0.0,1.0
1629793782.90625,0,0,79.99107677876158,0.0,1.0
1629793783.375,0,0,0.0,0.0,1.0
1629793783.84375,0,0,12.360223206063324,0.0,1.0
1629793784.3125,0,0,17.75327331422355,0.0,1.0
1629793784.78125,0,0,0.0,0.0,1.0
1629793785.25,0,0,75.14705333822214,0.0,1.0
1629793785.71875,0,0,174.52358425607252,0.0,1.0
1629793786.1875,0,0,0.0,0.0,1.0
1629793786.65625,0,0,35.53498359022278,0.0,1.0
1629793787.125,0,0,87.16350647471582,0.0,1.0
1629793787.59375,0,0,0.0,0.0,1.0
1629793788.0625,0,0,0.0,0.0,1.0
1629793788.53125,0,0,0.0,0.0,1.0
1629793789.0,0,0,89.6168344592749,0.0,1.0
1629793789.46875,0,0,0.0,0.0,1.0
1629793789.9375,0,0,164.59646170914039,0.0,1.0
1629793790.40625,0,0,-127.63527234809393,0.0,1.0
1629793790.875,0,0,90.02756082234363,0.0,1.0
1629793791.34375,0,0,0.0,0.0,1.0
1629793791.8125,0,0,152.9130391191451,0.0,1.0
1629793792.28125,0,0,0.0,0.0,1.0
1629793792.75,0,0,64.780946303245,0.0,1.0
1629793793.21875,0,0,0.0,0.0,1.0
1629793793.6875,0,0,0.0,0.0,1.0
1629793794.15625,0,0,166.8577407858808,0.0,1.0
1629793794.625,0,0,-141.1517554438739,0.0,1.0
1629793795.09375,0,0,115.33217746631932,0.0,1.0
1629793795.5625,0,0,0.0,0.0,1.0
1629793796.03125,0,0,183.51442413016147,0.0,1.0
1629793796.5,0,0,-195.2269347793619,0.0,1.0
1629793796.96875,0,0,123.88322420380119,0.0,1.0
1629793797.4375,0,0,0.0,0.0,1.0
1629793797.90625,0,0,0.0,0.0,1.0
1629793798.375,0,0,-133.05766895039804,0.0,1.0
1629793798.84375,0,0,93.11849807211914,0.0,1.0
1629793799.3125,0,0,0.0,0.0,1.0
1629793799.78125,0,0,176.23094781107633,0.0,1.0
1629793800.25,0,0,0.0,0.0,1.0
1629793800.71875,0,0,-49.24762513908458,0.0,1.0
1629793801.1875,0,0,0.0,0.0,1.0
1629793801.65625,0,0,151.36003354653695,0.0,1.0
1629793802.125,0,0,0.0,0.0,1.0
1629793802.59375,0,0,-11.44433209735668,0.0,1.0
1629793803.0625,0,0,104.30039240824895,0.0,1.0
1629793803.53125,0,0,0.0,0.0,1.0
1629793804.0,0,0,105.76303449239364,0.0,1.0
1629793804.46875,0,0,0.0,0.0,1.0
1629793804.9375,0,0,103.42580198717341,0.0,1.0
1629793805.40625,0,0,105.23894183288083,0.0,1.0
1629793805.875,0,0,34.8279557384661,0.0,1.0
1629793806.34375,0,0,-0.9466180867252256,0.0,1.0
1629793806.8125,0,0,46.68255176910101,0.0,1.0
1629793807.28125,0,0,0.0,0.0,1.0
1629793807.75,0,0,-64.76843787984443,0.0,1.0
1629793808.21875,0,0,117.15252698400501,0.0,1.0
1629793808.6875,0,0,0.0,0.0,1.0
1629793809.15625,0,0,44.528831569805064,0.0,1.0
1629793809.625,0,0,0.0,0.0,1.0
1629793810.09375,0,0,0.0,0.0,1.0
1629793810.5625,0,0,0.0,0.0,1.0
1629793811.03125,0,0,42.22844819618555,0.0,1.0
1629793811.5,0,0,0.0,0.0,1.0
1629793811.96875,0,0,49.723731221706416,0.0,1.0
1629793812.4375,0,0,0.0,0.0,1.0
1629793812.90625,0,0,0.0,0.0,1.0
1629793813.375,0,0,135.40396786465234,0.0,1.0
1629793813.84375,0,0,-40.153121472564244,0.0,1.0
1629793814.3125,0,0,75.00474067863809,0.0,1.0
1629793814.78125,0,0,0.0,0.0,1.0
1629793815.25,0,0,28.654603321087727,0.0,1.0
1629793815.71875,0,0,9.60462673010047,0.0,1.0
1629793816.1875,0,0,46.29947455833609,0.0,1.0
1629793816.65625,0,0,45.158162903027055,0.0,1.0
1629793817.125,0,0,56.97084119927146,0.0,1.0
1629793817.59375,0,0,0.0,0.0,1.0
1629793818.0625,0,0,5.744864431223961,0.0,1.0
1629793818.53125,0,0,78.91075173458903,0.0,1.0
1629793819.0,0,0,0.0,0.0,1.0
1629793819.46875,0,0,105.43980685282803,0.0,1.0
1629793819.9375,0,0,124.52782923427509,0.0,1.0
1629793820.40625,0,0,0.0,0.0,1.0
1629793820.875,0,0,181.93992037865402,0.0,1.0
1629793821.34375,0,0,-122.900297361516,0.0,1.0
1629793821.8125,0,0,104.18403340449117,0.0,1.0
1629793822.28125,0,0,0.0,0.0,1.0
1629793822.75,0,0,174.531586737422,0.0,1.0
1629793823.21875,0,0,-0.5533475483409924,0.0,1.0
1629793823.6875,0,0,65.26291882970123,0.0,1.0
1629793824.15625,0,0,0.0,0.0,1.0
1629793824.625,0,0,50.97351847878676,0.0,1.0
1629793825.09375,0,0,34.15426555143397,0.0,1.0
1629793825.5625,0,0,0.0,0.0,1.0
1629793826.03125,0,0,0.0,0.0,1.0
1629793826.5,0,0,68.26764249588254,0.0,1.0
1629793826.96875,0,0,0.0,0.0,1.0
1629793827.4375,0,0,119.27738046279111,0.0,1.0
1629793827.90625,0,0,0.0,0.0,1.0
1629793828.375,0,0,54.54333586646676,0.0,1.0
1629793828.84375,0,0,0.0,0.0,1.0
1629793829.3125,0,0,102.32026650934229,0.0,1.0
1629793829.78125,0,0,0.0,0.0,1.0
1629793830.25,0,0,123.05302413274865,0.0,1.0
1629793830.71875,0,0,120.1172114814574,0.0,1.0
1629793831.1875,0,0,100.25935020281888,0.0,1.0
1629793831.65625,0,0,0.0,0.0,1.0
1629793832.125,0,0,0.0,0.0,1.0
1629793832.59375,0,0,141.17409561146044,0.0,1.0
1629793833.0625,0,0,0.4959560937767854,0.0,1.0
1629793833.53125,0,0,74.04438528890603,0.0,1.0
1629793834.0,0,0,17.936162880349617,0.0,1.0
1629793834.46875,0,0,43.7759491217173,0.0,1.0
1629793834.9375,0,0,55.548061690440356,0.0,1.0
1629793835.40625,0,0,0.0,0.0,1.0
1629793835.875,0,0,56.85004769813908,0.0,1.0
1629793836.34375,0,0,63.79301650812555,0.0,1.0
1629793836.8125,0,0,92.91805579122644,0.0,1.0
1629793837.28125,0,0,0.0,0.0,1.0
1629793837.75,0,0,0.0,0.0,1.0
1629793838.21875,0,0,139.7839379489047,0.0,1.0
1629793838.6875,0,0,178.3739647885503,0.0,1.0
1629793839.15625,0,0,0.0,0.0,1.0
1629793839.625,0,0,0.0,0.0,1.0
1629793840.09375,0,0,162.52538004875876,0.0,1.0
1629793840.5625,0,0,0.0,0.0,1.0
1629793841.03125,0,0,125.88137431730749,0.0,1.0
1629793841.5,0,0,0.0,0.0,1.0
1629793841.96875,0,0,0.0,0.0,1.0
1629793842.4375,0,0,259.52059146411654,0.0,1.0
1629793842.90625,0,0,206.65386494342906,0.0,1.0
1629793843.375,0,0,0.0,0.0,1.0
1629793843.84375,0,0,0.0,0.0,1.0
1629793844.3125,0,0,221.62810714584444,0.0,1.0
1629793844.78125,0,0,-124.60640087160031,0.0,1.0
1629793845.25,0,0,124.10295454145607,0.0,1.0
1629793845.71875,0,0,0.0,0.0,1.0
1629793846.1875,0,0,206.17521363155186,0.0,1.0
1629793846.65625,0,0,0.0,0.0,1.0
1629793847.125,0,0,130.32097510347526,0.0,1.0
1629793847.59375,0,0,0.0,0.0,1.0
1629793848.0625,0,0,176.03202541429752,0.0,1.0
1629793848.53125,0,0,0.0,0.0,1.0
1629793849.0,0,0,101.76485070668681,0.0,1.0
1629793849.46875,0,0,0.0,0.0,1.0
1629793849.9375,0,0,128.3307950469341,0.0,1.0
1629793850.40625,0,0,36.311214197236446,0.0,1.0
1629793850.875,0,0,29.412313670722725,0.0,1.0
1629793851.34375,0,0,46.164463978591556,0.0,1.0
1629793851.8125,0,0,41.33058238017113,0.0,1.0
1629793852.28125,0,0,-33.79020854115479,0.0,1.0
1629793852.75,0,0,6.558213971423717,0.0,1.0
1629793853.21875,0,0,0.0,0.0,1.0
1629793853.6875,0,0,154.1298074074842,0.0,1.0
1629793854.15625,0,0,-92.017333628915,0.0,1.0
1629793854.625,0,0,86.28875837122959,0.0,1.0
1629793855.09375,0,0,0.0,0.0,1.0
1629793855.5625,0,0,131.6101097862389,0.0,1.0
1629793856.03125,0,0,0.0,0.0,1.0
1629793856.5,0,0,80.59606175647933,0.0,1.0
1629793856.96875,0,0,0.0,0.0,1.0
1629793857.4375,0,0,0.0,0.0,1.0
1629793857.90625,0,0,185.0184120608807,0.0,1.0
1629793858.375,0,0,0.0,0.0,1.0
1629793858.84375,0,0,0.0,0.0,1.0
1629793859.3125,0,0,0.0,0.0,1.0
1629793859.78125,0,0,145.33348984099084,0.0,1.0
1629793860.25,0,0,0.0,0.0,1.0
1629793860.71875,0,0,102.01921231218604,0.0,1.0
1629793861.1875,0,0,0.0,0.0,1.0
1629793861.65625,0,0,0.0,0.0,1.0
1629793862.125,0,0,51.74606046886454,0.0,1.0
1629793862.59375,0,0,6.081131087152749,0.0,1.0
1629793863.0625,0,0,36.30491457149746,0.0,1.0
1629793863.53125,0,0,0.0,0.0,1.0
1629793864.0,0,0,60.99652710798243,0.0,1.0
1629793864.46875,0,0,0.0,0.0,1.0
1629793864.9375,0,0,87.96273462779689,0.0,1.0
1629793865.40625,0,0,0.0,0.0,1.0
1629793865.875,0,0,48.39197186339166,0.0,1.0
1629793866.34375,0,0,0.0,0.0,1.0
1629793866.8125,0,0,0.0,0.0,1.0
1629793867.28125,0,0,13.428869924764976,0.0,1.0
1629793867.75,0,0,0.0,0.0,1.0
1629793868.21875,0,0,32.983986655928675,0.0,1.0
1629793868.6875,0,0,0.0,0.0,1.0
1629793869.15625,0,0,29.21026972246998,0.0,1.0
1629793869.625,0,0,0.0,0.0,1.0
1629793870.09375,0,0,61.50142746656518,0.0,1.0
1629793870.5625,0,0,0.0,0.0,1.0
1629793871.03125,0,0,0.0,0.0,1.0
1629793871.5,0,0,45.08223958515115,0.0,1.0
1629793871.96875,0,0,0.0,0.0,1.0
1629793872.4375,0,0,40.88890015881389,0.0,1.0
1629793872.90625,0,0,0.0,0.0,1.0
1629793873.375,0,0,0.0,0.0,1.0
1629793873.84375,0,0,28.406579256388763,0.0,1.0
1629793874.3125,0,0,0.0,0.0,1.0
1629793874.78125,0,0,47.00696237776237,0.0,1.0
1629793875.25,0,0,0.0,0.0,1.0
1629793875.71875,0,0,37.05857750755345,0.0,1.0
1629793876.1875,0,0,0.0,0.0,1.0
1629793876.65625,0,0,141.87262169807204,0.0,1.0
1629793877.125,0,0,172.90356047398333,0.0,1.0
1629793877.59375,0,0,93.8559667633566,0.0,1.0
1629793878.0625,0,0,0.0,0.0,1.0
1629793878.53125,0,0,194.57332561817432,0.0,1.0
1629793879.0,0,0,0.0,0.0,1.0
1629793879.46875,0,0,-29.550884334987796,0.0,1.0
1629793879.9375,0,0,68.51257259159964,0.0,1.0
1629793880.40625,0,0,44.80513153146452,0.0,1.0
1629793880.875,0,0,0.0,0.0,1.0
1629793881.34375,0,0,55.249780176810475,0.0,1.0
1629793881.8125,0,0,33.420191104872075,0.0,1.0
1629793882.28125,0,0,0.0,0.0,1.0
1629793882.75,0,0,172.81966495135984,0.0,1.0
1629793883.21875,0,0,73.49503570601743,0.0,1.0
1629793883.6875,0,0,0.0,0.0,1.0
1629793884.15625,0,0,0.0,0.0,1.0
1629793884.625,0,0,0.0,0.0,1.0
1629793885.09375,0,0,91.03689830725799,0.0,1.0
1629793885.5625,0,0,0.0,0.0,1.0
1629793886.03125,0,0,178.44224265110088,0.0,1.0
1629793886.5,0,0,0.0,0.0,1.0
1629793886.96875,0,0,-75.22935627736081,0.0,1.0
1629793887.4375,0,0,0.0,0.0,1.0
1629793887.90625,0,0,117.57268941237399,0.0,1.0
1629793888.375,0,0,0.0,0.0,1.0
1629793888.84375,0,0,0.9730096616176998,0.0,1.0
1629793889.3125,0,0,51.58813080204776,0.0,1.0
1629793889.78125,0,0,81.99519950316389,0.0,1.0
1629793890.25,0,0,-29.209532739438426,0.0,1.0
1629793890.71875,0,0,41.790617370553115,0.0,1.0
1629793891.1875,0,0,61.89282947907554,0.0,1.0
1629793891.65625,0,0,91.8067440711414,0.0,1.0
1629793892.125,0,0,0.0,0.0,1.0
1629793892.59375,0,0,85.31208405721988,0.0,1.0
1629793893.0625,0,0,0.0,0.0,1.0
1629793893.53125,0,0,92.26288403622036,0.0,1.0
1629793894.0,0,0,0.0,0.0,1.0
1629793894.46875,0,0,108.26211807938284,0.0,1.0
1629793894.9375,0,0,0.0,0.0,1.0
1629793895.40625,0,0,166.5205967217621,0.0,1.0
1629793895.875,0,0,0.0,0.0,1.0
1629793896.34375,0,0,110.79890978490542,0.0,1.0
1629793896.8125,0,0,0.0,0.0,1.0
1629793897.28125,0,0,160.66834092817223,0.0,1.0
1629793897.75,0,0,-128.11147857683,0.0,1.0
1629793898.21875,0,0,117.07659293128678,0.0,1.0
1629793898.6875,0,0,0.0,0.0,1.0
1629793899.15625,0,0,192.3131464261369,0.0,1.0
1629793899.625,0,0,-122.4881734308833,0.0,1.0
1629793900.09375,0,0,118.56344027477347,0.0,1.0
1629793900.5625,0,0,0.0,0.0,1.0
1629793901.03125,0,0,68.02024484559172,0.0,1.0
1629793901.5,0,0,146.89822474360426,0.0,1.0
1629793901.96875,0,0,83.3091235718163,0.0,1.0
1629793902.4375,0,0,0.0,0.0,1.0
1629793902.90625,0,0,0.0,0.0,1.0
1629793903.375,0,0,119.66065807175958,0.0,1.0
1629793903.84375,0,0,0.0,0.0,1.0
1629793904.3125,0,0,79.23524978724532,0.0,1.0
1629793904.78125,0,0,0.0,0.0,1.0
1629793905.25,0,0,161.75511397565012,0.0,1.0
1629793905.71875,0,0,0.0,0.0,1.0
1629793906.1875,0,0,-4.6949495660255165,0.0,1.0
1629793906.65625,0,0,0.0,0.0,1.0
1629793907.125,0,0,173.5220025563293,0.0,1.0
1629793907.59375,0,0,0.0,0.0,1.0
1629793908.0625,0,0,87.6663779811575,0.0,1.0
1629793908.53125,0,0,0.0,0.0,1.0
1629793909.0,0,0,187.06784581051195,0.0,1.0
1629793909.46875,0,0,-60.61994363215838,0.0,1.0
1629793909.9375,0,0,43.87810366049077,0.0,1.0
1629793910.40625,0,0,0.0,0.0,1.0
1629793910.875,0,0,243.34246038756226,0.0,1.0
1629793911.34375,0,0,0.0,0.0,1.0
1629793911.8125,0,0,102.18686001323087,0.0,1.0
1629793912.28125,0,0,0.0,0.0,1.0
1629793912.75,0,0,241.14193580545592,0.0,1.0
1629793913.21875,0,0,0.0,0.0,1.0
1629793913.6875,0,0,143.16282213382985,0.0,1.0
1629793914.15625,0,0,0.0,0.0,1.0
1629793914.625,0,0,0.0,0.0,1.0
1629793915.09375,0,0,137.42552795605965,0.0,1.0
1629793915.5625,0,0,73.51668252819981,0.0,1.0
1629793916.03125,0,0,0.0,0.0,1.0
1629793916.5,0,0,0.0,0.0,1.0
1629793916.96875,0,0,137.35478452085258,0.0,1.0
1629793917.4375,0,0,100.33551314931266,0.0,1.0
1629793917.90625,0,0,0.0,0.0,1.0
1629793918.375,0,0,58.896059542288484,0.0,1.0
1629793918.84375,0,0,0.0,0.0,1.0
1629793919.3125,0,0,95.21484160061497,0.0,1.0
1629793919.78125,0,0,0.0,0.0,1.0
1629793920.25,0,0,26.30931536120685,0.0,1.0
1629793920.71875,0,0,21.45668338531848,0.0,1.0
1629793921.1875,0,0,30.30139700617611,0.0,1.0
1629793921.65625,0,0,15.742989791590158,0.0,1.0
1629793922.125,0,0,46.930913634240696,0.0,1.0
1629793922.59375,0,0,138.05283615600874,0.0,1.0
1629793923.0625,0,0,7.274263722124418,0.0,1.0
1629793923.53125,0,0,45.82829117902613,0.0,1.0
1629793924.0,0,0,0.0,0.0,1.0
1629793924.46875,0,0,24.982799586430122,0.0,1.0
1629793924.9375,0,0,0.0,0.0,1.0
1629793925.40625,0,0,22.569465548383544,0.0,1.0
1629793925.875,0,0,0.0,0.0,1.0
1629793926.34375,0,0,0.0,0.0,1.0
1629793926.8125,0,0,0.0,0.0,1.0
1629793927.28125,0,0,0.0,0.0,1.0
1629793927.75,0,0,23.312817544640573,0.0,1.0
1629793928.21875,0,0,0.0,0.0,1.0
1629793928.6875,0,0,23.37498872494776,0.0,1.0
1629793929.15625,0,0,7.168840993404025,0.0,1.0
1629793929.625,0,0,8.445698205073565,0.0,1.0
1629793930.09375,0,0,29.77478690908376,0.0,1.0
1629793930.5625,0,0,0.0,0.0,1.0
1629793931.03125,0,0,116.686011125406,0.0,1.0
1629793931.5,0,0,79.96811299636589,0.0,1.0
1629793931.96875,0,0,0.0,0.0,1.0
1629793932.4375,0,0,3.9077267289905633,0.0,1.0
1629793932.90625,0,0,44.6102841365981,0.0,1.0
1629793933.375,0,0,0.0,0.0,1.0
1629793933.84375,0,0,173.78139434308767,0.0,1.0
1629793934.3125,0,0,-138.7375786468343,0.0,1.0
1629793934.78125,0,0,129.60392255851684,0.0,1.0
1629793935.25,0,0,0.0,0.0,1.0
1629793935.71875,0,0,144.26485239609204,0.0,1.0
1629793936.1875,0,0,-81.4916541753525,0.0,1.0
1629793936.65625,0,0,82.75286455150842,0.0,1.0
1629793937.125,0,0,0.0,0.0,1.0
1629793937.59375,0,0,209.0524399883721,0.0,1.0
1629793938.0625,0,0,-75.8715481677216,0.0,1.0
1629793938.53125,0,0,100.7363580359074,0.0,1.0
1629793939.0,0,0,0.0,0.0,1.0
1629793939.46875,0,0,165.84422485230954,0.0,1.0
1629793939.9375,0,0,0.0,0.0,1.0
1629793940.40625,0,0,103.35248947622404,0.0,1.0
1629793940.875,0,0,0.0,0.0,1.0
1629793941.34375,0,0,0.0,0.0,1.0
1629793941.8125,0,0,159.3305232866665,0.0,1.0
1629793942.28125,0,0,0.0,0.0,1.0
1629793942.75,0,0,113.56263318995133,0.0,1.0
1629793943.21875,0,0,0.0,0.0,1.0
1629793943.6875,0,0,202.58887639307858,0.0,1.0
1629793944.15625,0,0,-72.43864652086066,0.0,1.0
1629793944.625,0,0,80.50466632803813,0.0,1.0
1629793945.09375,0,0,0.0,0.0,1.0
1629793945.5625,0,0,172.31339172747164,0.0,1.0
1629793946.03125,0,0,-16.151766024783324,0.0,1.0
1629793946.5,0,0,81.26876046426005,0.0,1.0
1629793946.96875,0,0,0.0,0.0,1.0
1629793947.4375,0,0,118.05168712607885,0.0,1.0
1629793947.90625,0,0,0.0,0.0,1.0
1629793948.375,0,0,-7.031751142418771,0.0,1.0
1629793948.84375,0,0,68.74067549549686,0.0,1.0
1629793949.3125,0,0,23.660615600827008,0.0,1.0
1629793949.78125,0,0,0.0,0.0,1.0
1629793950.25,0,0,42.84236429025433,0.0,1.0
1629793950.71875,0,0,39.94672900664386,0.0,1.0
1629793951.1875,0,0,-4.804043327113957,0.0,1.0
1629793951.65625,0,0,222.24126117412806,0.0,1.0
1629793952.125,0,0,-56.645232645248775,0.0,1.0
1629793952.59375,0,0,98.71252410351158,0.0,1.0
1629793953.0625,0,0,92.53870418328171,0.0,1.0
1629793953.53125,0,0,0.0,0.0,1.0
1629793954.0,0,0,59.403596685219874,0.0,1.0
1629793954.46875,0,0,0.0,0.0,1.0
1629793954.9375,0,0,78.02016697854636,0.0,1.0
1629793955.40625,0,0,130.01383933538915,0.0,1.0
1629793955.875,0,0,102.23543028450119,0.0,1.0
1629793956.34375,0,0,0.0,0.0,1.0
1629793956.8125,0,0,45.73423317663611,0.0,1.0
1629793957.28125,0,0,28.14448147073751,0.0,1.0
1629793957.75,0,0,116.99946008699649,0.0,1.0
1629793958.21875,0,0,22.604809069892198,0.0,1.0
1629793958.6875,0,0,63.325515048459266,0.0,1.0
1629793959.15625,0,0,80.98463137100897,0.0,1.0
1629793959.625,0,0,31.233378938844698,0.0,1.0
1629793960.09375,0,0,36.83409698552785,0.0,1.0
1629793960.5625,0,0,0.0,0.0,1.0
1629793961.03125,0,0,131.86187046858467,0.0,1.0
1629793961.5,0,0,0.0,0.0,1.0
1629793961.96875,0,0,76.95556172781835,0.0,1.0
1629793962.4375,0,0,0.0,0.0,1.0
1629793962.90625,0,0,75.7508009047876,0.0,1.0
1629793963.375,0,0,79.4700946405398,0.0,1.0
1629793963.84375,0,0,58.78689737183827,0.0,1.0
1629793964.3125,0,0,0.0,0.0,1.0
1629793964.78125,0,0,0.0,0.0,1.0
1629793965.25,0,0,117.11296379083456,0.0,1.0
1629793965.71875,0,0,75.96505505091663,0.0,1.0
1629793966.1875,0,0,0.0,0.0,1.0
1629793966.65625,0,0,0.0,0.0,1.0
1629793967.125,0,0,137.47085183688196,0.0,1.0
1629793967.59375,0,0,83.06567626899708,0.0,1.0
1629793968.0625,0,0,0.0,0.0,1.0
1629793968.53125,0,0,0.0,0.0,1.0
1629793969.0,0,0,245.9675487119889,0.0,1.0
1629793969.46875,0,0,0.0,0.0,1.0
1629793969.9375,0,0,90.21035110155664,0.0,1.0
1629793970.40625,0,0,0.0,0.0,1.0
1629793970.875,0,0,179.98916357429022,0.0,1.0
1629793971.34375,0,0,0.0,0.0,1.0
1629793971.8125,0,0,92.02685971348635,0.0,1.0
1629793972.28125,0,0,0.0,0.0,1.0
1629793972.75,0,0,174.31940861396308,0.0,1.0
1629793973.21875,0,0,-124.98328809692426,0.0,1.0
1629793973.6875,0,0,95.45856609540067,0.0,1.0
1629793974.15625,0,0,0.0,0.0,1.0
1629793974.625,0,0,140.16144670895008,0.0,1.0
1629793975.09375,0,0,-156.85162077594785,0.0,1.0
1629793975.5625,0,0,130.91450039433232,0.0,1.0
1629793976.03125,0,0,0.0,0.0,1.0
1629793976.5,0,0,59.493190776275064,0.0,1.0
1629793976.96875,0,0,-56.09506788602588,0.0,1.0
1629793977.4375,0,0,63.328891350901316,0.0,1.0
1629793977.90625,0,0,299.832267039118,0.0,1.0
1629793978.375,0,0,-53.301728649795564,0.0,1.0
1629793978.84375,0,0,40.2633124950043,0.0,1.0
1629793979.3125,0,0,34.50859495452756,0.0,1.0
1629793979.78125,0,0,48.31505507956653,0.0,1.0
1629793980.25,0,0,5.994133415162392,0.0,1.0
1629793980.71875,0,0,12.43124071775084,0.0,1.0
1629793981.1875,0,0,38.60164717872264,0.0,1.0
1629793981.65625,0,0,17.258085594605696,0.0,1.0
1629793982.125,0,0,91.59708982523111,0.0,1.0
1629793982.59375,0,0,-36.501744143582215,0.0,1.0
1629793983.0625,0,0,69.77860027421033,0.0,1.0
1629793983.53125,0,0,77.19871537592871,0.0,1.0
1629793984.0,0,0,0.0,0.0,1.0
1629793984.46875,0,0,97.5677993180286,0.0,1.0
1629793984.9375,0,0,0.0,0.0,1.0
1629793985.40625,0,0,86.6187789634411,0.0,1.0
1629793985.875,0,0,0.0,0.0,1.0
1629793986.34375,0,0,13.564611425470924,0.0,1.0
1629793986.8125,0,0,128.14279393600816,0.0,1.0
1629793987.28125,0,0,67.77318795431425,0.0,1.0
1629793987.75,0,0,-56.31327061048665,0.0,1.0
1629793988.21875,0,0,89.53850380769494,0.0,1.0
1629793988.6875,0,0,0.0,0.0,1.0
1629793989.15625,0,0,0.0,0.0,1.0
1629793989.625,0,0,0.0,0.0,1.0
1629793990.09375,0,0,0.0,0.0,1.0
1629793990.5625,0,0,147.0470298236727,0.0,1.0
1629793991.03125,0,0,0.0,0.0,1.0
1629793991.5,0,0,129.8068331405493,0.0,1.0
1629793991.96875,0,0,0.0,0.0,1.0
1629793992.4375,0,0,102.92713361210953,0.0,1.0
1629793992.90625,0,0,0.0,0.0,1.0
1629793993.375,0,0,0.0,0.0,1.0
1629793993.84375,0,0,0.0,0.0,1.0
1629793994.3125,0,0,0.0,0.0,1.0
1629793994.78125,0,0,88.92239438055532,0.0,1.0
1629793995.25,0,0,0.0,0.0,1.0
1629793995.71875,0,0,0.0,0.0,1.0
1629793996.1875,0,0,80.21553395555509,0.0,1.0
1629793996.65625,0,0,0.0,0.0,1.0
1629793997.125,0,0,85.52240496840064,0.0,1.0
1629793997.59375,0,0,0.0,0.0,1.0
1629793998.0625,0,0,215.14011074323616,0.0,1.0
1629793998.53125,0,0,0.0,0.0,1.0
1629793999.0,0,0,126.98334230697239,0.0,1.0
1629793999.46875,0,0,0.0,0.0,1.0
1629793999.9375,0,0,262.25942745533695,0.0,1.0
1629794000.40625,0,0,-71.53084444697676,0.0,1.0
1629794000.875,0,0,118.89315748955104,0.0,1.0
1629794001.34375,0,0,0.0,0.0,1.0
1629794001.8125,0,0,0.0,0.0,1.0
1629794002.28125,0,0,187.53043192169568,0.0,1.0
1629794002.75,0,0,120.33788941574493,0.0,1.0
1629794003.21875,0,0,0.0,0.0,1.0
1629794003.6875,0,0,0.0,0.0,1.0
1629794004.15625,0,0,0.0,0.0,1.0
1629794004.625,0,0,-68.03229221660678,0.0,1.0
1629794005.09375,0,0,114.87209040429158,0.0,1.0
1629794005.5625,0,0,0.0,0.0,1.0
1629794006.03125,0,0,236.77579446660485,0.0,1.0
1629794006.5,0,0,-14.897066525333404,0.0,1.0
1629794006.96875,0,0,98.14956328179659,0.0,1.0
1629794007.4375,0,0,-25.571702368037194,0.0,1.0
1629794007.90625,0,0,155.6228819815101,0.0,1.0
1629794008.375,0,0,26.531578770911484,0.0,1.0
1629794008.84375,0,0,66.41518271800942,0.0,1.0
1629794009.3125,0,0,0.0,0.0,1.0
1629794009.78125,0,0,0.0,0.0,1.0
1629794010.25,0,0,198.42394145618545,0.0,1.0
1629794010.71875,0,0,-45.141271940732835,0.0,1.0
1629794011.1875,0,0,83.21495903232328,0.0,1.0
1629794011.65625,0,0,0.0,0.0,1.0
1629794012.125,0,0,339.00127869085054,0.0,1.0
1629794012.59375,0,0,0.0,0.0,1.0
1629794013.0625,0,0,141.04294365654798,0.0,1.0
1629794013.53125,0,0,0.0,0.0,1.0
1629794014.0,0,0,146.16684791716008,0.0,1.0
1629794014.46875,0,0,-18.77159059296151,0.0,1.0
1629794014.9375,0,0,125.62053636819432,0.0,1.0
1629794015.40625,0,0,0.0,0.0,1.0
1629794015.875,0,0,0.0,0.0,1.0
1629794016.34375,0,0,46.54366844131621,0.0,1.0
1629794016.8125,0,0,66.17158723379862,0.0,1.0
1629794017.28125,0,0,0.0,0.0,1.0
1629794017.75,0,0,100.69908765453638,0.0,1.0
1629794018.21875,0,0,82.77883904613597,0.0,1.0
1629794018.6875,0,0,0.0,0.0,1.0
1629794019.15625,0,0,56.68495405318125,0.0,1.0
1629794019.625,0,0,86.3584171059197,0.0,1.0
1629794020.09375,0,0,58.875398802702755,0.0,1.0
1629794020.5625,0,0,0.0,0.0,1.0
1629794021.03125,0,0,52.853564909752286,0.0,1.0
1629794021.5,0,0,75.77350851433701,0.0,1.0
1629794021.96875,0,0,0.0,0.0,1.0
1629794022.4375,0,0,74.88862559234886,0.0,1.0
1629794022.90625,0,0,36.01568452608433,0.0,1.0
1629794023.375,0,0,0.0,0.0,1.0
1629794023.84375,0,0,0.0,0.0,1.0
1629794024.3125,0,0,28.820635472910702,0.0,1.0
1629794024.78125,0,0,0.0,0.0,1.0
1629794025.25,0,0,124.52248407131762,0.0,1.0
1629794025.71875,0,0,0.0,0.0,1.0
1629794026.1875,0,0,84.74155735958894,0.0,1.0
1629794026.65625,0,0,0.0,0.0,1.0
1629794027.125,0,0,156.11095147242023,0.0,1.0
1629794027.59375,0,0,0.0,0.0,1.0
1629794028.0625,0,0,89.91832873079741,0.0,1.0
1629794028.53125,0,0,0.0,0.0,1.0
1629794029.0,0,0,161.50856948742717,0.0,1.0
1629794029.46875,0,0,0.0,0.0,1.0
1629794029.9375,0,0,115.13192984204862,0.0,1.0
1629794030.40625,0,0,0.0,0.0,1.0
1629794030.875,0,0,0.0,0.0,1.0
1629794031.34375,0,0,183.79887884404906,0.0,1.0
1629794031.8125,0,0,28.893664672666407,0.0,1.0
1629794032.28125,0,0,0.0,0.0,1.0
1629794032.75,0,0,229.67306393253153,0.0,1.0
1629794033.21875,0,0,0.0,0.0,1.0
1629794033.6875,0,0,86.68288159950862,0.0,1.0
1629794034.15625,0,0,0.0,0.0,1.0
1629794034.625,0,0,186.0363724491529,0.0,1.0
1629794035.09375,0,0,0.0,0.0,1.0
1629794035.5625,0,0,87.82989126414537,0.0,1.0
1629794036.03125,0,0,0.0,0.0,1.0
1629794036.5,0,0,180.7965704074402,0.0,1.0
1629794036.96875,0,0,-17.931610453554043,0.0,1.0
1629794037.4375,0,0,87.12491203284266,0.0,1.0
1629794037.90625,0,0,0.0,0.0,1.0
1629794038.375,0,0,-4.558017324175632,0.0,1.0
1629794038.84375,0,0,30.24652591971945,0.0,1.0
1629794039.3125,0,0,0.0,0.0,1.0
1629794039.78125,0,0,311.42357903766253,0.0,1.0
1629794040.25,0,0,0.0,0.0,1.0
1629794040.71875,0,0,100.87041897159834,0.0,1.0
1629794041.1875,0,0,0.0,0.0,1.0
1629794041.65625,0,0,40.90224408939381,0.0,1.0
1629794042.125,0,0,0.0,0.0,1.0
1629794042.59375,0,0,133.015374823008,0.0,1.0
1629794043.0625,0,0,0.0,0.0,1.0
1629794043.53125,0,0,113.47197452810843,0.0,1.0
1629794044.0,0,0,0.0,0.0,1.0
1629794044.46875,0,0,-26.00978445115566,0.0,1.0
1629794044.9375,0,0,92.21048547566531,0.0,1.0
1629794045.40625,0,0,51.783734242053434,0.0,1.0
1629794045.875,0,0,0.0,0.0,1.0
1629794046.34375,0,0,58.68984813611518,0.0,1.0
1629794046.8125,0,0,41.90073530077049,0.0,1.0
1629794047.28125,0,0,0.0,0.0,1.0
1629794047.75,0,0,70.28644465963745,0.0,1.0
1629794048.21875,0,0,0.0,0.0,1.0
1629794048.6875,0,0,42.81006162397968,0.0,1.0
1629794049.15625,0,0,0.0,0.0,1.0
1629794049.625,0,0,47.72320894135989,0.0,1.0
1629794050.09375,0,0,42.35342082862105,0.0,1.0
1629794050.5625,0,0,25.612922685292386,0.0,1.0
1629794051.03125,0,0,22.081246194860555,0.0,1.0
1629794051.5,0,0,31.83583150619639,0.0,1.0
1629794051.96875,0,0,0.0,0.0,1.0
1629794052.4375,0,0,0.0,0.0,1.0
1629794052.90625,0,0,0.0,0.0,1.0
1629794053.375,0,0,45.17878186194489,0.0,1.0
1629794053.84375,0,0,66.5533682514782,0.0,1.0
1629794054.3125,0,0,0.0,0.0,1.0
1629794054.78125,0,0,3.9892929999956173,0.0,1.0
1629794055.25,0,0,98.67718873786701,0.0,1.0
1629794055.71875,0,0,-92.93597652784707,0.0,1.0
1629794056.1875,0,0,53.10203807384218,0.0,1.0
1629794056.65625,0,0,0.0,0.0,1.0
1629794057.125,0,0,0.0,0.0,1.0
1629794057.59375,0,0,140.22516568342152,0.0,1.0
1629794058.0625,0,0,82.3787804260128,0.0,1.0
1629794058.53125,0,0,0.0,0.0,1.0
1629794059.0,0,0,0.0,0.0,1.0
1629794059.46875,0,0,207.2245165344252,0.0,1.0
1629794059.9375,0,0,-41.30139661076848,0.0,1.0
1629794060.40625,0,0,75.69864461854846,0.0,1.0
1629794060.875,0,0,0.0,0.0,1.0
1629794061.34375,0,0,75.09504753139906,0.0,1.0
1629794061.8125,0,0,26.37056748137694,0.0,1.0
1629794062.28125,0,0,0.0,0.0,1.0
1629794062.75,0,0,48.696578050569755,0.0,1.0
1629794063.21875,0,0,130.79689622547,0.0,1.0
1629794063.6875,0,0,0.0,0.0,1.0
1629794064.15625,0,0,97.12685498985712,0.0,1.0
1629794064.625,0,0,0.0,0.0,1.0
1629794065.09375,0,0,153.08044550040304,0.0,1.0
1629794065.5625,0,0,0.0,0.0,1.0
1629794066.03125,0,0,99.90092111241746,0.0,1.0
1629794066.5,0,0,0.0,0.0,1.0
1629794066.96875,0,0,0.0,0.0,1.0
1629794067.4375,0,0,156.04405613803283,0.0,1.0
1629794067.90625,0,0,102.67744886686035,0.0,1.0
1629794068.375,0,0,0.0,0.0,1.0
1629794068.84375,0,0,0.0,0.0,1.0
1629794069.3125,0,0,216.81299695126074,0.0,1.0
1629794069.78125,0,0,-102.72662336735378,0.0,1.0
1629794070.25,0,0,78.30253841246828,0.0,1.0
1629794070.71875,0,0,0.0,0.0,1.0
1629794071.1875,0,0,89.42199512860542,0.0,1.0
1629794071.65625,0,0,9.79908628701075,0.0,1.0
1629794072.125,0,0,0.0,0.0,1.0
1629794072.59375,0,0,58.833995498788,0.0,1.0
1629794073.0625,0,0,40.98301484174218,0.0,1.0
1629794073.53125,0,0,0.0,0.0,1.0
1629794074.0,0,0,0.0,0.0,1.0
1629794074.46875,0,0,72.84136494844795,0.0,1.0
1629794074.9375,0,0,122.10416343609084,0.0,1.0
1629794075.40625,0,0,0.0,0.0,1.0
1629794075.875,0,0,99.4190917273271,0.0,1.0
1629794076.34375,0,0,0.0,0.0,1.0
1629794076.8125,0,0,237.33748732887585,0.0,1.0
1629794077.28125,0,0,0.0,0.0,1.0
1629794077.75,0,0,107.29518427796846,0.0,1.0
1629794078.21875,0,0,0.0,0.0,1.0
1629794078.6875,0,0,0.0,0.0,1.0
1629794079.15625,0,0,222.54784548013617,0.0,1.0
1629794079.625,0,0,-13.454414451654353,0.0,1.0
1629794080.09375,0,0,67.71423366091527,0.0,1.0
1629794080.5625,0,0,-12.79418035135194,0.0,1.0
1629794081.03125,0,0,141.13132675019446,0.0,1.0
1629794081.5,0,0,-8.225058579300525,0.0,1.0
1629794081.96875,0,0,-8.110488025423502,0.0,1.0
1629794082.4375,0,0,80.0323798491475,0.0,1.0
1629794082.90625,0,0,120.52930783432568,0.0,1.0
1629794083.375,0,0,84.43674619058906,0.0,1.0
1629794083.84375,0,0,0.0,0.0,1.0
1629794084.3125,0,0,0.0,0.0,1.0
1629794084.78125,0,0,208.66000675919415,0.0,1.0
1629794085.25,0,0,0.0,0.0,1.0
1629794085.71875,0,0,75.52383353819653,0.0,1.0
1629794086.1875,0,0,0.0,0.0,1.0
1629794086.65625,0,0,143.34295531713366,0.0,1.0
1629794087.125,0,0,-1.6684383466841148,0.0,1.0
1629794087.59375,0,0,63.32338090736027,0.0,1.0
1629794088.0625,0,0,0.0,0.0,1.0
1629794088.53125,0,0,0.0,0.0,1.0
1629794089.0,0,0,196.57331363399638,0.0,1.0
1629794089.46875,0,0,1.1005032722930466,0.0,1.0
1629794089.9375,0,0,73.08665168016114,0.0,1.0
1629794090.40625,0,0,117.74967087477503,0.0,1.0
1629794090.875,0,0,0.0,0.0,1.0
1629794091.34375,0,0,85.5361491833084,0.0,1.0
1629794091.8125,0,0,0.0,0.0,1.0
1629794092.28125,0,0,0.0,0.0,1.0
1629794092.75,0,0,202.14979977832843,0.0,1.0
1629794093.21875,0,0,103.6187432257997,0.0,1.0
1629794093.6875,0,0,0.0,0.0,1.0
1629794094.15625,0,0,52.049836328099445,0.0,1.0
1629794094.625,0,0,108.70450930851258,0.0,1.0
1629794095.09375,0,0,-125.96947382143883,0.0,1.0
1629794095.5625,0,0,81.57678089826688,0.0,1.0
1629794096.03125,0,0,0.0,0.0,1.0
1629794096.5,0,0,42.71933017442054,0.0,1.0
1629794096.96875,0,0,41.57866421352115,0.0,1.0
1629794097.4375,0,0,54.34942923530682,0.0,1.0
1629794097.90625,0,0,0.0,0.0,1.0
1629794098.375,0,0,0.0,0.0,1.0
1629794098.84375,0,0,39.88340328927257,0.0,1.0
1629794099.3125,0,0,0.0,0.0,1.0
1629794099.78125,0,0,32.86949631122223,0.0,1.0
1629794100.25,0,0,26.42594809147667,0.0,1.0
1629794100.71875,0,0,23.286468671403558,0.0,1.0
1629794101.1875,0,0,46.86503332427626,0.0,1.0
1629794101.65625,0,0,0.0,0.0,1.0
1629794102.125,0,0,58.17417317202311,0.0,1.0
1629794102.59375,0,0,0.0,0.0,1.0
1629794103.0625,0,0,28.577561770817677,0.0,1.0
1629794103.53125,0,0,0.0,0.0,1.0
1629794104.0,0,0,35.57267534754003,0.0,1.0
1629794104.46875,0,0,0.0,0.0,1.0
1629794104.9375,0,0,38.54071369489355,0.0,1.0
1629794105.40625,0,0,0.0,0.0,1.0
1629794105.875,0,0,8.238475872711438,0.0,1.0
1629794106.34375,0,0,59.39792288740849,0.0,1.0
1629794106.8125,0,0,0.0,0.0,1.0
1629794107.28125,0,0,57.24209994258152,0.0,1.0
1629794107.75,0,0,21.11179479830118,0.0,1.0
1629794108.21875,0,0,23.28868060792858,0.0,1.0
1629794108.6875,0,0,5.2218982743805,0.0,1.0
1629794109.15625,0,0,75.45795115178451,0.0,1.0
1629794109.625,0,0,0.0,0.0,1.0
1629794110.09375,0,0,48.799963559528514,0.0,1.0
1629794110.5625,0,0,0.0,0.0,1.0
1629794111.03125,0,0,0.0,0.0,1.0
1629794111.5,0,0,90.3658565784935,0.0,1.0
1629794111.96875,0,0,46.828569519135044,0.0,1.0
1629794112.4375,0,0,43.095426797734774,0.0,1.0
1629794112.90625,0,0,43.09934265613793,0.0,1.0
1629794113.375,0,0,14.007725728380366,0.0,1.0
1629794113.84375,0,0,130.59028305605193,0.0,1.0
1629794114.3125,0,0,30.500310343900324,0.0,1.0
1629794114.78125,0,0,0.0,0.0,1.0
1629794115.25,0,0,0.0,0.0,1.0
1629794115.71875,0,0,-103.50314184233363,0.0,1.0
1629794116.1875,0,0,65.98737806259919,0.0,1.0
1629794116.65625,0,0,0.0,0.0,1.0
1629794117.125,0,0,0.0,0.0,1.0
1629794117.59375,0,0,135.72765070641643,0.0,1.0
1629794118.0625,0,0,-99.88454412839883,0.0,1.0
1629794118.53125,0,0,86.84559320732548,0.0,1.0
1629794119.0,0,0,0.0,0.0,1.0
1629794119.46875,0,0,131.4971218003932,0.0,1.0
1629794119.9375,0,0,115.26063643504794,0.0,1.0
1629794120.40625,0,0,0.0,0.0,1.0
1629794120.875,0,0,82.48700768526332,0.0,1.0
1629794121.34375,0,0,214.6101929544231,0.0,1.0
1629794121.8125,0,0,0.0,0.0,1.0
1629794122.28125,0,0,57.05077472370187,0.0,1.0
1629794122.75,0,0,45.07985839232386,0.0,1.0
1629794123.21875,0,0,75.35045961463449,0.0,1.0
1629794123.6875,0,0,0.0,0.0,1.0
1629794124.15625,0,0,45.99490625487021,0.0,1.0
1629794124.625,0,0,46.670406157228335,0.0,1.0
1629794125.09375,0,0,19.943280569327797,0.0,1.0
1629794125.5625,0,0,133.40753567658007,0.0,1.0
1629794126.03125,0,0,25.27063566978487,0.0,1.0
1629794126.5,0,0,76.55068355121932,0.0,1.0
1629794126.96875,0,0,123.93099788352018,0.0,1.0
1629794127.4375,0,0,0.0,0.0,1.0
1629794127.90625,0,0,87.30144796867256,0.0,1.0
1629794128.375,0,0,0.0,0.0,1.0
1629794128.84375,0,0,0.0,0.0,1.0
1629794129.3125,0,0,154.57942762562635,0.0,1.0
1629794129.78125,0,0,86.96013400146568,0.0,1.0
1629794130.25,0,0,0.0,0.0,1.0
1629794130.71875,0,0,0.0,0.0,1.0
1629794131.1875,0,0,193.4683072936398,0.0,1.0
1629794131.65625,0,0,123.0212716869946,0.0,1.0
1629794132.125,0,0,0.0,0.0,1.0
1629794132.59375,0,0,0.0,0.0,1.0
1629794133.0625,0,0,177.0952958654133,0.0,1.0
1629794133.53125,0,0,5.428641120088526,0.0,1.0
1629794134.0,0,0,60.60174308587031,0.0,1.0
1629794134.46875,0,0,0.0,0.0,1.0
1629794134.9375,0,0,195.91692152548092,0.0,1.0
1629794135.40625,0,0,0.0,0.0,1.0
1629794135.875,0,0,5.721577225788522,0.0,1.0
1629794136.34375,0,0,63.182741101769516,0.0,1.0
1629794136.8125,0,0,80.63725231657999,0.0,1.0
1629794137.28125,0,0,0.0,0.0,1.0
1629794137.75,0,0,48.195489507812326,0.0,1.0
1629794138.21875,0,0,43.10229651982874,0.0,1.0
1629794138.6875,0,0,106.03845545083469,0.0,1.0
1629794139.15625,0,0,0.0,0.0,1.0
1629794139.625,0,0,51.17809172577443,0.0,1.0
1629794140.09375,0,0,0.0,0.0,1.0
1629794140.5625,0,0,118.2035229439267,0.0,1.0
1629794141.03125,0,0,0.0,0.0,1.0
1629794141.5,0,0,78.4312770355951,0.0,1.0
1629794141.96875,0,0,0.0,0.0,1.0
1629794142.4375,0,0,0.0,0.0,1.0
1629794142.90625,0,0,0.0,0.0,1.0
1629794143.375,0,0,96.16646142716587,0.0,1.0
1629794143.84375,0,0,0.0,0.0,1.0
1629794144.3125,0,0,0.0,0.0,1.0
1629794144.78125,0,0,230.64765573727598,0.0,1.0
1629794145.25,0,0,109.73273817177719,0.0,1.0
1629794145.71875,0,0,0.0,0.0,1.0
1629794146.1875,0,0,0.0,0.0,1.0
1629794146.65625,0,0,213.76363333571842,0.0,1.0
1629794147.125,0,0,-18.595883198177173,0.0,1.0
1629794147.59375,0,0,50.33903129872656,0.0,1.0
1629794148.0625,0,0,14.99998349729373,0.0,1.0
1629794148.53125,0,0,131.9308975771344,0.0,1.0
1629794149.0,0,0,12.643215305406267,0.0,1.0
1629794149.46875,0,0,45.10109932155496,0.0,1.0
1629794149.9375,0,0,-7.68149635495276,0.0,1.0
1629794150.40625,0,0,210.95758253054086,0.0,1.0
1629794150.875,0,0,25.24623926099145,0.0,1.0
1629794151.34375,0,0,29.67973497657631,0.0,1.0
1629794151.8125,0,0,32.50104322423368,0.0,1.0
1629794152.28125,0,0,66.64231046456105,0.0,1.0
1629794152.75,0,0,51.74920294340334,0.0,1.0
1629794153.21875,0,0,-48.957750392818966,0.0,1.0
1629794153.6875,0,0,66.96250748315498,0.0,1.0
1629794154.15625,0,0,0.0,0.0,1.0
1629794154.625,0,0,62.21832118646023,0.0,1.0
1629794155.09375,0,0,0.0,0.0,1.0
1629794155.5625,0,0,10.46993090085624,0.0,1.0
1629794156.03125,0,0,15.992965338823568,0.0,1.0
1629794156.5,0,0,78.82270231403317,0.0,1.0
1629794156.96875,0,0,0.0,0.0,1.0
1629794157.4375,0,0,38.87255362172247,0.0,1.0
1629794157.90625,0,0,65.22328882334541,0.0,1.0
1629794158.375,0,0,0.0,0.0,1.0
1629794158.84375,0,0,23.212722354354057,0.0,1.0
1629794159.3125,0,0,0.0,0.0,1.0
1629794159.78125,0,0,24.325995996757296,0.0,1.0
1629794160.25,0,0,6.798958928963044,0.0,1.0
1629794160.71875,0,0,23.68904956533839,0.0,1.0
1629794161.1875,0,0,0.0,0.0,1.0
1629794161.65625,0,0,32.28512706790356,0.0,1.0
1629794162.125,0,0,0.0,0.0,1.0
1629794162.59375,0,0,38.27793534728392,0.0,1.0
1629794163.0625,0,0,0.0,0.0,1.0
1629794163.53125,0,0,0.0,0.0,1.0
1629794164.0,0,0,28.333004476082778,0.0,1.0
1629794164.46875,0,0,0.0,0.0,1.0
1629794164.9375,0,0,59.72795021396824,0.0,1.0
1629794165.40625,0,0,0.0,0.0,1.0
1629794165.875,0,0,86.11605388006952,0.0,1.0
1629794166.34375,0,0,0.0,0.0,1.0
1629794166.8125,0,0,54.91928025014127,0.0,1.0
1629794167.28125,0,0,0.0,0.0,1.0
1629794167.75,0,0,39.90522373458879,0.0,1.0
1629794168.21875,0,0,0.0,0.0,1.0
1629794168.6875,0,0,54.986638059300745,0.0,1.0
1629794169.15625,0,0,0.0,0.0,1.0
1629794169.625,0,0,70.06765545221779,0.0,1.0
1629794170.09375,0,0,24.791934898797887,0.0,1.0
1629794170.5625,0,0,0.0,0.0,1.0
1629794171.03125,0,0,106.39288618312113,0.0,1.0
1629794171.5,0,0,0.0,0.0,1.0
1629794171.96875,0,0,70.23983147961327,0.0,1.0
1629794172.4375,0,0,0.0,0.0,1.0
1629794172.90625,0,0,132.76647002911878,0.0,1.0
1629794173.375,0,0,-124.85871381213543,0.0,1.0
1629794173.84375,0,0,76.91213186076497,0.0,1.0
1629794174.3125,0,0,0.0,0.0,1.0
1629794174.78125,0,0,152.8362117356653,0.0,1.0
1629794175.25,0,0,-133.74873945069908,0.0,1.0
1629794175.71875,0,0,89.88210430592413,0.0,1.0
1629794176.1875,0,0,0.0,0.0,1.0
1629794176.65625,0,0,162.09256717402664,0.0,1.0
1629794177.125,0,0,0.0,0.0,1.0
1629794177.59375,0,0,67.03970710544556,0.0,1.0
1629794178.0625,0,0,0.0,0.0,1.0
1629794178.53125,0,0,0.0,0.0,1.0
1629794179.0,0,0,0.0,0.0,1.0
1629794179.46875,0,0,-12.687743104686135,0.0,1.0
1629794179.9375,0,0,72.81009195050876,0.0,1.0
1629794180.40625,0,0,0.0,0.0,1.0
1629794180.875,0,0,227.11078338171077,0.0,1.0
1629794181.34375,0,0,0.0,0.0,1.0
1629794181.8125,0,0,82.38826464414545,0.0,1.0
1629794182.28125,0,0,7.5836268050869675,0.0,1.0
1629794182.75,0,0,53.965502488413456,0.0,1.0
1629794183.21875,0,0,33.24916809621382,0.0,1.0
1629794183.6875,0,0,0.0,0.0,1.0
1629794184.15625,0,0,0.0,0.0,1.0
1629794184.625,0,0,109.57364344003642,0.0,1.0
1629794185.09375,0,0,65.17545207315506,0.0,1.0
1629794185.5625,0,0,0.0,0.0,1.0
1629794186.03125,0,0,0.0,0.0,1.0
1629794186.5,0,0,104.58530777979847,0.0,1.0
1629794186.96875,0,0,0.0,0.0,1.0
1629794187.4375,0,0,73.73627480630822,0.0,1.0
1629794187.90625,0,0,0.0,0.0,1.0
1629794188.375,0,0,132.97730451690376,0.0,1.0
1629794188.84375,0,0,0.0,0.0,1.0
1629794189.3125,0,0,88.02388458804984,0.0,1.0
1629794189.78125,0,0,0.0,0.0,1.0
1629794190.25,0,0,143.82596062351718,0.0,1.0
1629794190.71875,0,0,0.0,0.0,1.0
1629794191.1875,0,0,108.95061007595592,0.0,1.0
1629794191.65625,0,0,0.0,0.0,1.0
1629794192.125,0,0,0.0,0.0,1.0
1629794192.59375,0,0,146.99704626069644,0.0,1.0
1629794193.0625,0,0,84.30407074202117,0.0,1.0
1629794193.53125,0,0,0.0,0.0,1.0
1629794194.0,0,0,0.0,0.0,1.0
1629794194.46875,0,0,0.0,0.0,1.0
1629794194.9375,0,0,78.36894398780719,0.0,1.0
1629794195.40625,0,0,0.0,0.0,1.0
1629794195.875,0,0,0.0,0.0,1.0
1629794196.34375,0,0,0.0,0.0,1.0
1629794196.8125,0,0,85.4701367720069,0.0,1.0
1629794197.28125,0,0,0.0,0.0,1.0
1629794197.75,0,0,0.0,0.0,1.0
1629794198.21875,0,0,134.1502462437631,0.0,1.0
1629794198.6875,0,0,-23.78388631954577,0.0,1.0
1629794199.15625,0,0,52.39308786917903,0.0,1.0
1629794199.625,0,0,0.0,0.0,1.0
1629794200.09375,0,0,189.15315338068964,0.0,1.0
1629794200.5625,0,0,0.0,0.0,1.0
1629794201.03125,0,0,107.24878608712734,0.0,1.0
1629794201.5,0,0,0.0,0.0,1.0
1629794201.96875,0,0,192.33564817287467,0.0,1.0
1629794202.4375,0,0,25.068985813214926,0.0,1.0
1629794202.90625,0,0,80.3056133468236,0.0,1.0
1629794203.375,0,0,0.0,0.0,1.0
1629794203.84375,0,0,121.65905332690821,0.0,1.0
1629794204.3125,0,0,34.64875922721081,0.0,1.0
1629794204.78125,0,0,0.0,0.0,1.0
1629794205.25,0,0,44.17098873266811,0.0,1.0
1629794205.71875,0,0,17.95359706128647,0.0,1.0
1629794206.1875,0,0,42.62141285868124,0.0,1.0
1629794206.65625,0,0,0.0,0.0,1.0
1629794207.125,0,0,56.43483314672401,0.0,1.0
1629794207.59375,0,0,98.30208914598641,0.0,1.0
1629794208.0625,0,0,76.1448790428102,0.0,1.0
1629794208.53125,0,0,0.0,0.0,1.0
1629794209.0,0,0,0.0,0.0,1.0
1629794209.46875,0,0,95.48416735144777,0.0,1.0
1629794209.9375,0,0,98.33660553574097,0.0,1.0
1629794210.40625,0,0,0.0,0.0,1.0
1629794210.875,0,0,52.172315945182845,0.0,1.0
1629794211.34375,0,0,0.0,0.0,1.0
1629794211.8125,0,0,-13.451853549544763,0.0,1.0
1629794212.28125,0,0,42.467761157703606,0.0,1.0
1629794212.75,0,0,0.0,0.0,1.0
1629794213.21875,0,0,51.921803056233294,0.0,1.0
1629794213.6875,0,0,0.0,0.0,1.0
1629794214.15625,0,0,54.980628471180324,0.0,1.0
1629794214.625,0,0,0.0,0.0,1.0
1629794215.09375,0,0,39.49865268739586,0.0,1.0
1629794215.5625,0,0,0.0,0.0,1.0
1629794216.03125,0,0,29.57071645187678,0.0,1.0
1629794216.5,0,0,0.0,0.0,1.0
1629794216.96875,0,0,30.455543339144793,0.0,1.0
1629794217.4375,0,0,0.0,0.0,1.0
1629794217.90625,0,0,17.796467901878128,0.0,1.0
1629794218.375,0,0,19.813502627801864,0.0,1.0
1629794218.84375,0,0,33.424166455927406,0.0,1.0
1629794219.3125,0,0,0.0,0.0,1.0
1629794219.78125,0,0,27.75471762263173,0.0,1.0
1629794220.25,0,0,26.413972144133268,0.0,1.0
1629794220.71875,0,0,0.0,0.0,1.0
1629794221.1875,0,0,31.62456428148046,0.0,1.0
1629794221.65625,0,0,0.0,0.0,1.0
1629794222.125,0,0,43.33944297690156,0.0,1.0
1629794222.59375,0,0,0.0,0.0,1.0
1629794223.0625,0,0,40.82803643773214,0.0,1.0
1629794223.53125,0,0,0.0,0.0,1.0
1629794224.0,0,0,53.18992174476072,0.0,1.0
1629794224.46875,0,0,25.3478465103387,0.0,1.0
1629794224.9375,0,0,-2.3582613236971497,0.0,1.0
1629794225.40625,0,0,27.43233185259202,0.0,1.0
1629794225.875,0,0,16.994596606293396,0.0,1.0
1629794226.34375,0,0,0.0,0.0,1.0
1629794226.8125,0,0,194.7955833900219,0.0,1.0
1629794227.28125,0,0,99.34225272338183,0.0,1.0
1629794227.75,0,0,0.0,0.0,1.0
1629794228.21875,0,0,135.347855387294,0.0,1.0
1629794228.6875,0,0,0.0,0.0,1.0
1629794229.15625,0,0,54.11831942325625,0.0,1.0
1629794229.625,0,0,0.0,0.0,1.0
1629794230.09375,0,0,134.24343788675347,0.0,1.0
1629794230.5625,0,0,0.0,0.0,1.0
1629794231.03125,0,0,45.28977647954087,0.0,1.0
1629794231.5,0,0,0.0,0.0,1.0
1629794231.96875,0,0,125.47236393213858,0.0,1.0
1629794232.4375,0,0,0.0,0.0,1.0
1629794232.90625,0,0,66.27922054279831,0.0,1.0
1629794233.375,0,0,0.0,0.0,1.0
1629794233.84375,0,0,152.6323091731844,0.0,1.0
1629794234.3125,0,0,0.0,0.0,1.0
1629794234.78125,0,0,54.41301896288806,0.0,1.0
1629794235.25,0,0,0.0,0.0,1.0
1629794235.71875,0,0,0.0,0.0,1.0
1629794236.1875,0,0,0.0,0.0,1.0
1629794236.65625,0,0,-0.41760327601320624,0.0,1.0
1629794237.125,0,0,47.518804055701,0.0,1.0
1629794237.59375,0,0,16.076176239469003,0.0,1.0
1629794238.0625,0,0,60.236904391191345,0.0,1.0
1629794238.53125,0,0,26.412603124257537,0.0,1.0
1629794239.0,0,0,41.253988800570134,0.0,1.0
1629794239.46875,0,0,40.24530878782165,0.0,1.0
1629794239.9375,0,0,86.53970422200571,0.0,1.0
1629794240.40625,0,0,73.21824686497212,0.0,1.0
1629794240.875,0,0,0.0,0.0,1.0
1629794241.34375,0,0,34.470015292793356,0.0,1.0
1629794241.8125,0,0,68.17678357475768,0.0,1.0
1629794242.28125,0,0,58.02847254350134,0.0,1.0
1629794242.75,0,0,0.0,0.0,1.0
1629794243.21875,0,0,57.574215218818004,0.0,1.0
1629794243.6875,0,0,91.66929071239302,0.0,1.0
1629794244.15625,0,0,77.52457871514872,0.0,1.0
1629794244.625,0,0,0.0,0.0,1.0
1629794245.09375,0,0,0.0,0.0,1.0
1629794245.5625,0,0,99.09619946038765,0.0,1.0
1629794246.03125,0,0,0.0,0.0,1.0
1629794246.5,0,0,85.32677919768392,0.0,1.0
1629794246.96875,0,0,0.0,0.0,1.0
1629794247.4375,0,0,171.12479027733414,0.0,1.0
1629794247.90625,0,0,0.0,0.0,1.0
1629794248.375,0,0,87.93022649604863,0.0,1.0
1629794248.84375,0,0,0.0,0.0,1.0
1629794249.3125,0,0,196.1648813483318,0.0,1.0
1629794249.78125,0,0,-38.44690943707478,0.0,1.0
1629794250.25,0,0,72.77363384526313,0.0,1.0
1629794250.71875,0,0,0.0,0.0,1.0
1629794251.1875,0,0,0.0,0.0,1.0
1629794251.65625,0,0,0.0,0.0,1.0
1629794252.125,0,0,0.0,0.0,1.0
1629794252.59375,0,0,58.41601713255014,0.0,1.0
1629794253.0625,0,0,56.113986955299566,0.0,1.0
1629794253.53125,0,0,0.0,0.0,1.0
1629794254.0,0,0,0.0,0.0,1.0
1629794254.46875,0,0,72.00271172687557,0.0,1.0
1629794254.9375,0,0,85.21297572043449,0.0,1.0
1629794255.40625,0,0,0.0,0.0,1.0
1629794255.875,0,0,87.4887033759225,0.0,1.0
1629794256.34375,0,0,0.0,0.0,1.0
1629794256.8125,0,0,156.22040824306785,0.0,1.0
1629794257.28125,0,0,0.0,0.0,1.0
1629794257.75,0,0,108.55006023886662,0.0,1.0
1629794258.21875,0,0,0.0,0.0,1.0
1629794258.6875,0,0,0.0,0.0,1.0
1629794259.15625,0,0,159.89941813704291,0.0,1.0
1629794259.625,0,0,100.18576347468634,0.0,1.0
1629794260.09375,0,0,0.0,0.0,1.0
1629794260.5625,0,0,0.0,0.0,1.0
1629794261.03125,0,0,135.58376032400722,0.0,1.0
1629794261.5,0,0,0.0,0.0,1.0
1629794261.96875,0,0,87.23398175449486,0.0,1.0
1629794262.4375,0,0,0.0,0.0,1.0
1629794262.90625,0,0,146.85834437881624,0.0,1.0
1629794263.375,0,0,-22.86618891224728,0.0,1.0
1629794263.84375,0,0,60.710671688952424,0.0,1.0
1629794264.3125,0,0,0.0,0.0,1.0
1629794264.78125,0,0,79.37159107712864,0.0,1.0
1629794265.25,0,0,31.14221453427258,0.0,1.0
1629794265.71875,0,0,39.478168064538586,0.0,1.0
1629794266.1875,0,0,33.0449302383361,0.0,1.0
1629794266.65625,0,0,63.14978607234278,0.0,1.0
1629794267.125,0,0,72.05385268667277,0.0,1.0
1629794267.59375,0,0,0.0,0.0,1.0
1629794268.0625,0,0,50.50452441057288,0.0,1.0
1629794268.53125,0,0,0.0,0.0,1.0
1629794269.0,0,0,73.77214286869653,0.0,1.0
1629794269.46875,0,0,0.0,0.0,1.0
1629794269.9375,0,0,42.39664763681758,0.0,1.0
1629794270.40625,0,0,0.0,0.0,1.0
1629794270.875,0,0,44.52418427814388,0.0,1.0
1629794271.34375,0,0,0.0,0.0,1.0
1629794271.8125,0,0,0.0,0.0,1.0
1629794272.28125,0,0,0.0,0.0,1.0
1629794272.75,0,0,0.0,0.0,1.0
1629794273.21875,0,0,0.0,0.0,1.0
1629794273.6875,0,0,0.0,0.0,1.0
1629794274.15625,0,0,0.0,0.0,1.0
1629794274.625,0,0,0.0,0.0,1.0
1629794275.09375,0,0,59.43989978414866,0.0,1.0
1629794275.5625,0,0,-39.415662741600244,0.0,1.0
1629794276.03125,0,0,36.00497386718745,0.0,1.0
1629794276.5,0,0,0.0,0.0,1.0
1629794276.96875,0,0,29.904564901326676,0.0,1.0
1629794277.4375,0,0,0.0,0.0,1.0
1629794277.90625,0,0,0.0,0.0,1.0
1629794278.375,0,0,24.56529421578101,0.0,1.0
1629794278.84375,0,0,0.0,0.0,1.0
1629794279.3125,0,0,95.65240669535008,0.0,1.0
1629794279.78125,0,0,0.0,0.0,1.0
1629794280.25,0,0,60.82149928046795,0.0,1.0
1629794280.71875,0,0,0.0,0.0,1.0
1629794281.1875,0,0,0.0,0.0,1.0
1629794281.65625,0,0,112.78717376087347,0.0,1.0
1629794282.125,0,0,-89.33945138269364,0.0,1.0
1629794282.59375,0,0,70.90703175358918,0.0,1.0
1629794283.0625,0,0,19.583215614712863,0.0,1.0
1629794283.53125,0,0,50.07062607345002,0.0,1.0
1629794284.0,0,0,97.31927107455742,0.0,1.0
1629794284.46875,0,0,129.40907796329432,0.0,1.0
1629794284.9375,0,0,0.0,0.0,1.0
1629794285.40625,0,0,162.04947170435543,0.0,1.0
1629794285.875,0,0,-7.361430008033894,0.0,1.0
1629794286.34375,0,0,0.0,0.0,1.0
1629794286.8125,0,0,62.621505021398946,0.0,1.0
1629794287.28125,0,0,95.67199870146537,0.0,1.0
1629794287.75,0,0,85.38491452726656,0.0,1.0
1629794288.21875,0,0,0.0,0.0,1.0
1629794288.6875,0,0,0.0,0.0,1.0
1629794289.15625,0,0,114.97509427850156,0.0,1.0
1629794289.625,0,0,0.0,0.0,1.0
1629794290.09375,0,0,88.14846020878872,0.0,1.0
1629794290.5625,0,0,0.0,0.0,1.0
1629794291.03125,0,0,142.78804743620398,0.0,1.0
1629794291.5,0,0,0.0,0.0,1.0
1629794291.96875,0,0,86.26528024420722,0.0,1.0
1629794292.4375,0,0,0.0,0.0,1.0
1629794292.90625,0,0,128.11997957001674,0.0,1.0
1629794293.375,0,0,26.56083983436935,0.0,1.0
1629794293.84375,0,0,0.0,0.0,1.0
1629794294.3125,0,0,40.25992292055376,0.0,1.0
1629794294.78125,0,0,61.833394779256416,0.0,1.0
1629794295.25,0,0,0.0,0.0,1.0
1629794295.71875,0,0,0.0,0.0,1.0
1629794296.1875,0,0,61.872941283667956,0.0,1.0
1629794296.65625,0,0,58.13725921151686,0.0,1.0
1629794297.125,0,0,0.0,0.0,1.0
1629794297.59375,0,0,117.12062816168296,0.0,1.0
1629794298.0625,0,0,0.0,0.0,1.0
1629794298.53125,0,0,0.0,0.0,1.0
1629794299.0,0,0,0.0,0.0,1.0
1629794299.46875,0,0,193.824556322978,0.0,1.0
1629794299.9375,0,0,0.0,0.0,1.0
1629794300.40625,0,0,0.0,0.0,1.0
1629794300.875,0,0,0.0,0.0,1.0
1629794301.34375,0,0,0.0,0.0,1.0
1629794301.8125,0,0,0.0,0.0,1.0
1629794302.28125,0,0,31.116980756918245,0.0,1.0
1629794302.75,0,0,54.02090580499794,0.0,1.0
1629794303.21875,0,0,27.10404202744622,0.0,1.0
1629794303.6875,0,0,45.06373228522259,0.0,1.0
1629794304.15625,0,0,0.0,0.0,1.0
1629794304.625,0,0,140.08115036955766,0.0,1.0
1629794305.09375,0,0,-20.2675394114105,0.0,1.0
1629794305.5625,0,0,66.91038934974972,0.0,1.0
1629794306.03125,0,0,0.0,0.0,1.0
1629794306.5,0,0,154.2142841898826,0.0,1.0
1629794306.96875,0,0,-36.314285481920436,0.0,1.0
1629794307.4375,0,0,73.68925694365666,0.0,1.0
1629794307.90625,0,0,0.0,0.0,1.0
1629794308.375,0,0,122.65898650966585,0.0,1.0
1629794308.84375,0,0,-47.09370332794488,0.0,1.0
1629794309.3125,0,0,55.20417169528773,0.0,1.0
1629794309.78125,0,0,20.374206605444204,0.0,1.0
1629794310.25,0,0,28.699259111742755,0.0,1.0
1629794310.71875,0,0,74.30887190754639,0.0,1.0
1629794311.1875,0,0,0.0,0.0,1.0
1629794311.65625,0,0,67.70655267228561,0.0,1.0
1629794312.125,0,0,149.3050689337838,0.0,1.0
1629794312.59375,0,0,-70.5048597803179,0.0,1.0
1629794313.0625,0,0,91.54024221901103,0.0,1.0
1629794313.53125,0,0,0.0,0.0,1.0
1629794314.0,0,0,121.28014340854261,0.0,1.0
1629794314.46875,0,0,17.259758334723077,0.0,1.0
1629794314.9375,0,0,51.2303422538346,0.0,1.0
1629794315.40625,0,0,49.67344592796677,0.0,1.0
1629794315.875,0,0,112.05133367444218,0.0,1.0
1629794316.34375,0,0,0.0,0.0,1.0
1629794316.8125,0,0,91.52683527364408,0.0,1.0
1629794317.28125,0,0,0.0,0.0,1.0
1629794317.75,0,0,26.70284912883014,0.0,1.0
1629794318.21875,0,0,43.76955477027139,0.0,1.0
1629794318.6875,0,0,40.63243370958084,0.0,1.0
1629794319.15625,0,0,0.0,0.0,1.0
1629794319.625,0,0,99.44751155148917,0.0,1.0
1629794320.09375,0,0,106.79301992019035,0.0,1.0
1629794320.5625,0,0,98.4584982413862,0.0,1.0
1629794321.03125,0,0,0.0,0.0,1.0
1629794321.5,0,0,0.0,0.0,1.0
1629794321.96875,0,0,151.7135274290666,0.0,1.0
1629794322.4375,0,0,79.83300462295817,0.0,1.0
1629794322.90625,0,0,72.03878387744959,0.0,1.0
1629794323.375,0,0,62.461926667297085,0.0,1.0
1629794323.84375,0,0,156.02799358780535,0.0,1.0
1629794324.3125,0,0,0.0,0.0,1.0
1629794324.78125,0,0,81.83241013838129,0.0,1.0
1629794325.25,0,0,0.0,0.0,1.0
1629794325.71875,0,0,74.02401500102326,0.0,1.0
1629794326.1875,0,0,-24.04155997146467,0.0,1.0
1629794326.65625,0,0,91.93677681195564,0.0,1.0
1629794327.125,0,0,0.0,0.0,1.0
1629794327.59375,0,0,51.94409020107315,0.0,1.0
1629794328.0625,0,0,0.0,0.0,1.0
1629794328.53125,0,0,60.656626786765884,0.0,1.0
1629794329.0,0,0,0.0,0.0,1.0
1629794329.46875,0,0,0.0,0.0,1.0
1629794329.9375,0,0,51.57113899946126,0.0,1.0
1629794330.40625,0,0,46.39252213170158,0.0,1.0
1629794330.875,0,0,0.0,0.0,1.0
1629794331.34375,0,0,45.02351962371665,0.0,1.0
1629794331.8125,0,0,39.75348267348003,0.0,1.0
1629794332.28125,0,0,0.0,0.0,1.0
1629794332.75,0,0,33.59218773457154,0.0,1.0
1629794333.21875,0,0,0.0,0.0,1.0
1629794333.6875,0,0,-9.23402183005505,0.0,1.0
1629794334.15625,0,0,59.80661325143326,0.0,1.0
1629794334.625,0,0,0.0,0.0,1.0
1629794335.09375,0,0,0.0,0.0,1.0
1629794335.5625,0,0,74.8270659636355,0.0,1.0
1629794336.03125,0,0,0.0,0.0,1.0
1629794336.5,0,0,14.72070001097724,0.0,1.0
1629794336.96875,0,0,0.0,0.0,1.0
1629794337.4375,0,0,60.37522633218793,0.0,1.0
1629794337.90625,0,0,0.0,0.0,1.0
1629794338.375,0,0,29.348996492699197,0.0,1.0
1629794338.84375,0,0,0.0,0.0,1.0
1629794339.3125,0,0,112.39458837627248,0.0,1.0
1629794339.78125,0,0,0.0,0.0,1.0
1629794340.25,0,0,0.0,0.0,1.0
1629794340.71875,0,0,131.35150485357468,0.0,1.0
1629794341.1875,0,0,0.0,0.0,1.0
1629794341.65625,0,0,75.4720947111589,0.0,1.0
1629794342.125,0,0,0.0,0.0,1.0
1629794342.59375,0,0,120.4811061430728,0.0,1.0
1629794343.0625,0,0,-105.37621952960997,0.0,1.0
1629794343.53125,0,0,0.0,0.0,1.0
1629794344.0,0,0,5.6921812850613245,0.0,1.0
1629794344.46875,0,0,101.24075120855662,0.0,1.0
1629794344.9375,0,0,0.8720572306157318,0.0,1.0
1629794345.40625,0,0,70.99619599814582,0.0,1.0
1629794345.875,0,0,0.0,0.0,1.0
1629794346.34375,0,0,33.94965153936959,0.0,1.0
1629794346.8125,0,0,61.937925194151994,0.0,1.0
1629794347.28125,0,0,0.0,0.0,1.0
1629794347.75,0,0,70.21336725504983,0.0,1.0
1629794348.21875,0,0,94.74803681000385,0.0,1.0
1629794348.6875,0,0,0.0,0.0,1.0
1629794349.15625,0,0,77.60608224989222,0.0,1.0
1629794349.625,0,0,0.0,0.0,1.0
1629794350.09375,0,0,131.27812444522922,0.0,1.0
1629794350.5625,0,0,-122.46077892513772,0.0,1.0
1629794351.03125,0,0,92.25368537516547,0.0,1.0
1629794351.5,0,0,0.0,0.0,1.0
1629794351.96875,0,0,155.20402899925853,0.0,1.0
1629794352.4375,0,0,-37.12798714794023,0.0,1.0
1629794352.90625,0,0,72.39002132369394,0.0,1.0
1629794353.375,0,0,0.0,0.0,1.0
1629794353.84375,0,0,38.61163983138612,0.0,1.0
1629794354.3125,0,0,38.629399248257116,0.0,1.0
1629794354.78125,0,0,0.0,0.0,1.0
1629794355.25,0,0,56.95525624461147,0.0,1.0
1629794355.71875,0,0,80.2661507159687,0.0,1.0
1629794356.1875,0,0,71.09310386213649,0.0,1.0
1629794356.65625,0,0,0.0,0.0,1.0
1629794357.125,0,0,0.0,0.0,1.0
1629794357.59375,0,0,134.05862088086403,0.0,1.0
1629794358.0625,0,0,84.840564007056,0.0,1.0
1629794358.53125,0,0,0.0,0.0,1.0
1629794359.0,0,0,0.0,0.0,1.0
1629794359.46875,0,0,149.5048845924444,0.0,1.0
1629794359.9375,0,0,0.0,0.0,1.0
1629794360.40625,0,0,93.06841811968062,0.0,1.0
1629794360.875,0,0,0.0,0.0,1.0
1629794361.34375,0,0,159.7149299185697,0.0,1.0
1629794361.8125,0,0,-36.39246200859611,0.0,1.0
1629794362.28125,0,0,82.84841723754141,0.0,1.0
1629794362.75,0,0,0.0,0.0,1.0
1629794363.21875,0,0,129.37469268585133,0.0,1.0
1629794363.6875,0,0,1.4066300802644836,0.0,1.0
1629794364.15625,0,0,0.0,0.0,1.0
1629794364.625,0,0,59.0059070164344,0.0,1.0
1629794365.09375,0,0,68.97811744436812,0.0,1.0
1629794365.5625,0,0,46.20603072810798,0.0,1.0
1629794366.03125,0,0,0.0,0.0,1.0
1629794366.5,0,0,68.53963371201911,0.0,1.0
1629794366.96875,0,0,93.84732435859779,0.0,1.0
1629794367.4375,0,0,78.56276735507868,0.0,1.0
1629794367.90625,0,0,0.0,0.0,1.0
1629794368.375,0,0,0.0,0.0,1.0
1629794368.84375,0,0,133.51851911308833,0.0,1.0
1629794369.3125,0,0,-135.3606440062593,0.0,1.0
1629794369.78125,0,0,86.34234758337162,0.0,1.0
1629794370.25,0,0,0.0,0.0,1.0
1629794370.71875,0,0,143.95945916167614,0.0,1.0
1629794371.1875,0,0,-16.385768905225728,0.0,1.0
1629794371.65625,0,0,60.42215140009657,0.0,1.0
1629794372.125,0,0,0.0,0.0,1.0
1629794372.59375,0,0,52.29622531949528,0.0,1.0
1629794373.0625,0,0,27.23787953167168,0.0,1.0
1629794373.53125,0,0,0.0,0.0,1.0
1629794374.0,0,0,45.97791114661386,0.0,1.0
1629794374.46875,0,0,54.21531120871964,0.0,1.0
1629794374.9375,0,0,61.720417176880694,0.0,1.0
1629794375.40625,0,0,0.0,0.0,1.0
1629794375.875,0,0,0.0,0.0,1.0
1629794376.34375,0,0,109.88718570214327,0.0,1.0
1629794376.8125,0,0,79.10980881804383,0.0,1.0
1629794377.28125,0,0,0.0,0.0,1.0
1629794377.75,0,0,0.0,0.0,1.0
1629794378.21875,0,0,150.0636842263976,0.0,1.0
1629794378.6875,0,0,-38.20483948878419,0.0,1.0
1629794379.15625,0,0,91.83638293220986,0.0,1.0
1629794379.625,0,0,-16.68989251468007,0.0,1.0
1629794380.09375,0,0,72.48502077595076,0.0,1.0
1629794380.5625,0,0,-9.272844586677603,0.0,1.0
1629794381.03125,0,0,0.0,0.0,1.0
1629794381.5,0,0,0.0,0.0,1.0
1629794381.96875,0,0,0.0,0.0,1.0
1629794382.4375,0,0,64.76436923933021,0.0,1.0
1629794382.90625,0,0,62.40249400020466,0.0,1.0
1629794383.375,0,0,0.0,0.0,1.0
1629794383.84375,0,0,41.54754619251366,0.0,1.0
1629794384.3125,0,0,41.99145714576404,0.0,1.0
1629794384.78125,0,0,0.0,0.0,1.0
1629794385.25,0,0,57.233575790794546,0.0,1.0
1629794385.71875,0,0,0.0,0.0,1.0
1629794386.1875,0,0,0.0,0.0,1.0
1629794386.65625,0,0,34.24458913295923,0.0,1.0
1629794387.125,0,0,0.0,0.0,1.0
1629794387.59375,0,0,29.199417488165352,0.0,1.0
1629794388.0625,0,0,0.0,0.0,1.0
1629794388.53125,0,0,27.85129810651457,0.0,1.0
1629794389.0,0,0,0.0,0.0,1.0
1629794389.46875,0,0,20.451491720958256,0.0,1.0
1629794389.9375,0,0,0.0,0.0,1.0
1629794390.40625,0,0,27.91857347798858,0.0,1.0
1629794390.875,0,0,0.0,0.0,1.0
1629794391.34375,0,0,22.30384667404415,0.0,1.0
1629794391.8125,0,0,23.706053585082177,0.0,1.0
1629794392.28125,0,0,20.79397848521477,0.0,1.0
1629794392.75,0,0,23.300465791646815,0.0,1.0
1629794393.21875,0,0,0.0,0.0,1.0
1629794393.6875,0,0,45.412653993897884,0.0,1.0
1629794394.15625,0,0,0.0,0.0,1.0
1629794394.625,0,0,52.34205658396278,0.0,1.0
1629794395.09375,0,0,-43.46373251021087,0.0,1.0
1629794395.5625,0,0,81.02562015241412,0.0,1.0
1629794396.03125,0,0,-28.96314078666014,0.0,1.0
1629794396.5,0,0,43.68411023903321,0.0,1.0
1629794396.96875,0,0,98.81338123800546,0.0,1.0
1629794397.4375,0,0,-68.2885742130011,0.0,1.0
1629794397.90625,0,0,194.0723432688656,0.0,1.0
1629794398.375,0,0,0.0,0.0,1.0
1629794398.84375,0,0,0.0,0.0,1.0
1629794399.3125,0,0,91.18238406780195,0.0,1.0
1629794399.78125,0,0,40.80990773162048,0.0,1.0
1629794400.25,0,0,0.0,0.0,1.0
1629794400.71875,0,0,37.88265046802062,0.0,1.0
1629794401.1875,0,0,102.65847233818455,0.0,1.0
1629794401.65625,0,0,0.0,0.0,1.0
1629794402.125,0,0,0.0,0.0,1.0
1629794402.59375,0,0,0.0,0.0,1.0
1629794403.0625,0,0,111.08412135941641,0.0,1.0
1629794403.53125,0,0,0.0,0.0,1.0
1629794404.0,0,0,38.44834453669432,0.0,1.0
1629794404.46875,0,0,31.20327607120639,0.0,1.0
1629794404.9375,0,0,150.73470969094544,0.0,1.0
1629794405.40625,0,0,0.0,0.0,1.0
1629794405.875,0,0,27.947205198906154,0.0,1.0
1629794406.34375,0,0,66.91301376266222,0.0,1.0
1629794406.8125,0,0,97.02756552450695,0.0,1.0
1629794407.28125,0,0,0.0,0.0,1.0
1629794407.75,0,0,87.67168834124253,0.0,1.0
1629794408.21875,0,0,0.0,0.0,1.0
1629794408.6875,0,0,47.0765418361956,0.0,1.0
1629794409.15625,0,0,118.63368931287798,0.0,1.0
1629794409.625,0,0,48.359708197359325,0.0,1.0
1629794410.09375,0,0,64.35755231127429,0.0,1.0
1629794410.5625,0,0,0.0,0.0,1.0
1629794411.03125,0,0,226.60929662990037,0.0,1.0
1629794411.5,0,0,-85.92453266567935,0.0,1.0
1629794411.96875,0,0,96.08651797486834,0.0,1.0
1629794412.4375,0,0,0.0,0.0,1.0
1629794412.90625,0,0,122.59827044411851,0.0,1.0
1629794413.375,0,0,4.750194126680938,0.0,1.0
1629794413.84375,0,0,53.23882014639214,0.0,1.0
1629794414.3125,0,0,0.0,0.0,1.0
1629794414.78125,0,0,131.02706885377393,0.0,1.0
1629794415.25,0,0,0.0,0.0,1.0
1629794415.71875,0,0,135.2663332096161,0.0,1.0
1629794416.1875,0,0,0.0,0.0,1.0
1629794416.65625,0,0,165.5944678181857,0.0,1.0
1629794417.125,0,0,113.16143091833518,0.0,1.0
1629794417.59375,0,0,0.0,0.0,1.0
1629794418.0625,0,0,0.0,0.0,1.0
1629794418.53125,0,0,195.73233928326215,0.0,1.0
1629794419.0,0,0,0.0,0.0,1.0
1629794419.46875,0,0,101.5011741866371,0.0,1.0
1629794419.9375,0,0,0.0,0.0,1.0
1629794420.40625,0,0,276.9997454360139,0.0,1.0
1629794420.875,0,0,0.0,0.0,1.0
1629794421.34375,0,0,40.66001768917303,0.0,1.0
1629794421.8125,0,0,92.22065299019528,0.0,1.0
1629794422.28125,0,0,-5.225465761570497,0.0,1.0
1629794422.75,0,0,79.3669988192298,0.0,1.0
1629794423.21875,0,0,45.37537308878804,0.0,1.0
1629794423.6875,0,0,0.0,0.0,1.0
1629794424.15625,0,0,201.17896797380385,0.0,1.0
1629794424.625,0,0,0.0,0.0,1.0
1629794425.09375,0,0,102.34853561002792,0.0,1.0
1629794425.5625,0,0,0.0,0.0,1.0
1629794426.03125,0,0,205.43847424973274,0.0,1.0
1629794426.5,0,0,0.0,0.0,1.0
1629794426.96875,0,0,-21.82324029459899,0.0,1.0
1629794427.4375,0,0,0.0,0.0,1.0
1629794427.90625,0,0,0.7303920899624171,0.0,1.0
1629794428.375,0,0,0.0,0.0,1.0
1629794428.84375,0,0,86.56658136865897,0.0,1.0
1629794429.3125,0,0,53.072348774720915,0.0,1.0
1629794429.78125,0,0,40.855240044823915,0.0,1.0
1629794430.25,0,0,70.91129526666829,0.0,1.0
1629794430.71875,0,0,74.63688802731792,0.0,1.0
1629794431.1875,0,0,0.0,0.0,1.0
1629794431.65625,0,0,0.0,0.0,1.0
1629794432.125,0,0,151.6345869059882,0.0,1.0
1629794432.59375,0,0,82.45467489624257,0.0,1.0
1629794433.0625,0,0,0.0,0.0,1.0
1629794433.53125,0,0,0.0,0.0,1.0
1629794434.0,0,0,173.76956703774187,0.0,1.0
1629794434.46875,0,0,-35.63516463531712,0.0,1.0
1629794434.9375,0,0,58.83323072791066,0.0,1.0
1629794435.40625,0,0,0.0,0.0,1.0
1629794435.875,0,0,200.76563651642502,0.0,1.0
1629794436.34375,0,0,30.076855430030566,0.0,1.0
1629794436.8125,0,0,0.0,0.0,1.0
1629794437.28125,0,0,29.66815126447285,0.0,1.0
1629794437.75,0,0,82.09556542192199,0.0,1.0
1629794438.21875,0,0,56.57439277038552,0.0,1.0
1629794438.6875,0,0,0.0,0.0,1.0
1629794439.15625,0,0,46.738448034971555,0.0,1.0
1629794439.625,0,0,41.40829252821611,0.0,1.0
1629794440.09375,0,0,20.99375748638841,0.0,1.0
1629794440.5625,0,0,1.7843930754814974,0.0,1.0
1629794441.03125,0,0,25.27239433911659,0.0,1.0
1629794441.5,0,0,127.02499929058844,0.0,1.0
1629794441.96875,0,0,0.0,0.0,1.0
1629794442.4375,0,0,263.3065976518825,0.0,1.0
1629794442.90625,0,0,-21.11314975462483,0.0,1.0
1629794443.375,0,0,35.293642517550076,0.0,1.0
1629794443.84375,0,0,0.0,0.0,1.0
1629794444.3125,0,0,0.0,0.0,1.0
1629794444.78125,0,0,71.3039372341691,0.0,1.0
1629794445.25,0,0,0.0,0.0,1.0
1629794445.71875,0,0,44.918557218649234,0.0,1.0
1629794446.1875,0,0,66.94870269011008,0.0,1.0
1629794446.65625,0,0,12.554059513527681,0.0,1.0
1629794447.125,0,0,0.0,0.0,1.0
1629794447.59375,0,0,29.842353284608887,0.0,1.0
1629794448.0625,0,0,0.0,0.0,1.0
1629794448.53125,0,0,0.0,0.0,1.0
1629794449.0,0,0,0.0,0.0,1.0
1629794449.46875,0,0,0.0,0.0,1.0
1629794449.9375,0,0,0.0,0.0,1.0
1629794450.40625,0,0,0.0,0.0,1.0
1629794450.875,0,0,37.046309132117564,0.0,1.0
1629794451.34375,0,0,0.0,0.0,1.0
1629794451.8125,0,0,0.0,0.0,1.0
1629794452.28125,0,0,0.0,0.0,1.0
1629794452.75,0,0,0.0,0.0,1.0
1629794453.21875,0,0,47.85418110129027,0.0,1.0
1629794453.6875,0,0,-1.2786749511708524,0.0,1.0
1629794454.15625,0,0,95.44891941773024,0.0,1.0
1629794454.625,0,0,-94.85568471005152,0.0,1.0
1629794455.09375,0,0,0.0,0.0,1.0
1629794455.5625,0,0,156.29826055133773,0.0,1.0
1629794456.03125,0,0,-39.112126918316854,0.0,2.0
1629794456.5,0,0,54.27223367384506,0.0,2.0
1629794456.96875,0,0,0.0,0.0,2.0
1629794457.4375,0,0,306.13626126967944,0.0,2.0
1629794457.90625,0,0,-92.32814180152965,0.0,2.0
1629794458.375,0,0,296.2204916340428,0.0,2.0
1629794458.84375,0,0,37.01466663973973,0.0,2.0
1629794459.3125,0,0,295.2331974472902,0.0,2.0
1629794459.78125,0,0,-44.3442104963924,0.0,2.0
1629794460.25,0,0,25.517348972603852,0.0,2.0
1629794460.71875,0,0,15.107811137109893,0.0,2.0
1629794461.1875,0,0,40.075732642029166,0.0,2.0
1629794461.65625,0,0,0.0,0.0,2.0
1629794462.125,0,0,0.0,0.0,2.0
1629794462.59375,0,0,89.08662774489743,0.0,2.0
1629794463.0625,0,0,0.0,0.0,2.0
1629794463.53125,0,0,70.49670032264103,0.0,2.0
1629794464.0,0,0,0.0,0.0,2.0
1629794464.46875,0,0,0.0,0.0,2.0
1629794464.9375,0,0,19.659908673736197,0.0,2.0
1629794465.40625,0,0,0.0,0.0,2.0
1629794465.875,0,0,22.31741394016541,0.0,2.0
1629794466.34375,0,0,0.0,0.0,2.0
1629794466.8125,0,0,17.501327343897074,0.0,2.0
1629794467.28125,0,0,0.0,0.0,2.0
1629794467.75,0,0,21.26470552386572,0.0,2.0
1629794468.21875,0,0,0.0,0.0,2.0
1629794468.6875,0,0,19.396103886860345,0.0,2.0
1629794469.15625,0,0,17.721695544209865,0.0,2.0
1629794469.625,0,0,0.0,0.0,2.0
1629794470.09375,0,0,16.83691522921301,0.0,2.0
1629794470.5625,0,0,0.0,0.0,2.0
1629794471.03125,0,0,18.215654782043803,0.0,2.0
1629794471.5,0,0,0.0,0.0,2.0
1629794471.96875,0,0,19.860720389876533,0.0,2.0
1629794472.4375,0,0,0.0,0.0,2.0
1629794472.90625,0,0,25.129240839315234,0.0,2.0
1629794473.375,0,0,0.0,0.0,2.0
1629794473.84375,0,0,25.27710547644939,0.0,2.0
1629794474.3125,0,0,0.0,0.0,2.0
1629794474.78125,0,0,26.417946423073104,0.0,2.0
1629794475.25,0,0,0.0,0.0,2.0
1629794475.71875,0,0,0.0,0.0,2.0
1629794476.1875,0,0,0.0,0.0,2.0
1629794476.65625,0,0,70.17673821122621,0.0,2.0
1629794477.125,0,0,109.25511079489895,0.0,2.0
1629794477.59375,0,0,33.50377205750392,0.0,2.0
1629794478.0625,0,0,0.0,0.0,2.0
1629794478.53125,0,0,41.16042993155814,0.0,2.0
1629794479.0,0,0,18.51386949274412,0.0,2.0
1629794479.46875,0,0,29.08559406304148,0.0,2.0
1629794479.9375,0,0,0.0,0.0,2.0
1629794480.40625,0,0,28.13385212171437,0.0,2.0
1629794480.875,0,0,0.0,0.0,2.0
1629794481.34375,0,0,33.11211439475227,0.0,2.0
1629794481.8125,0,0,0.0,0.0,2.0
1629794482.28125,0,0,0.0,0.0,2.0
1629794482.75,0,0,0.0,0.0,2.0
1629794483.21875,0,0,0.0,0.0,2.0
1629794483.6875,0,0,25.93299801576948,0.0,2.0
1629794484.15625,0,0,0.0,0.0,2.0
1629794484.625,0,0,26.880981612389757,0.0,2.0
1629794485.09375,0,0,0.0,0.0,2.0
1629794485.5625,0,0,26.378003416165633,0.0,2.0
1629794486.03125,0,0,0.0,0.0,2.0
1629794486.5,0,0,0.0,0.0,2.0
1629794486.96875,0,0,26.704675704268002,0.0,2.0
1629794487.4375,0,0,0.0,0.0,2.0
1629794487.90625,0,0,30.356082025285225,0.0,2.0
1629794488.375,0,0,0.0,0.0,2.0
1629794488.84375,0,0,0.0,0.0,2.0
1629794489.3125,0,0,29.612538141702807,0.0,2.0
1629794489.78125,0,0,0.0,0.0,2.0
1629794490.25,0,0,28.250317548139236,0.0,2.0
1629794490.71875,0,0,0.0,0.0,2.0
1629794491.1875,0,0,31.35862457195259,0.0,2.0
1629794491.65625,0,0,0.0,0.0,2.0
1629794492.125,0,0,0.0,0.0,2.0
1629794492.59375,0,0,31.084697908715604,0.0,2.0
1629794493.0625,0,0,0.0,0.0,2.0
1629794493.53125,0,0,0.0,0.0,2.0
1629794494.0,0,0,32.09286693845732,0.0,2.0
1629794494.46875,0,0,0.0,0.0,2.0
1629794494.9375,0,0,34.67850459195108,0.0,2.0
1629794495.40625,0,0,0.0,0.0,2.0
1629794495.875,0,0,0.0,0.0,2.0
1629794496.34375,0,0,0.0,0.0,2.0
1629794496.8125,0,0,0.0,0.0,2.0
1629794497.28125,0,0,36.127207643913906,0.0,2.0
1629794497.75,0,0,0.0,0.0,2.0
1629794498.21875,0,0,38.182899872176094,0.0,2.0
1629794498.6875,0,0,0.0,0.0,2.0
1629794499.15625,0,0,0.0,0.0,2.0
1629794499.625,0,0,35.22008770249115,0.0,2.0
1629794500.09375,0,0,0.0,0.0,2.0
1629794500.5625,0,0,34.20624308246363,0.0,2.0
1629794501.03125,0,0,0.0,0.0,2.0
1629794501.5,0,0,37.018461898825414,0.0,2.0
1629794501.96875,0,0,0.0,0.0,2.0
1629794502.4375,0,0,0.0,0.0,2.0
1629794502.90625,0,0,36.60609111022706,0.0,2.0
1629794503.375,0,0,0.0,0.0,2.0
1629794503.84375,0,0,31.211263743635993,0.0,2.0
1629794504.3125,0,0,0.0,0.0,2.0
1629794504.78125,0,0,0.0,0.0,2.0
1629794505.25,0,0,31.679649884701803,0.0,2.0
1629794505.71875,0,0,0.0,0.0,2.0
1629794506.1875,0,0,35.44767087705212,0.0,2.0
1629794506.65625,0,0,0.0,0.0,2.0
1629794507.125,0,0,0.0,0.0,2.0
1629794507.59375,0,0,32.22620616659024,0.0,2.0
1629794508.0625,0,0,0.0,0.0,2.0
1629794508.53125,0,0,28.76903974521128,0.0,2.0
1629794509.0,0,0,0.0,0.0,2.0
1629794509.46875,0,0,33.46425785475045,0.0,2.0
1629794509.9375,0,0,0.0,0.0,2.0
1629794510.40625,0,0,0.0,0.0,2.0
1629794510.875,0,0,35.10957380689564,0.0,2.0
1629794511.34375,0,0,0.0,0.0,2.0
1629794511.8125,0,0,30.305299269207325,0.0,2.0
1629794512.28125,0,0,0.0,0.0,2.0
1629794512.75,0,0,40.20774993013776,0.0,2.0
1629794513.21875,0,0,0.0,0.0,2.0
1629794513.6875,0,0,0.0,0.0,2.0
1629794514.15625,0,0,37.16531144037002,0.0,2.0
1629794514.625,0,0,0.0,0.0,2.0
1629794515.09375,0,0,34.40076792775724,0.0,2.0
1629794515.5625,0,0,0.0,0.0,2.0
1629794516.03125,0,0,38.39559958397369,0.0,2.0
1629794516.5,0,0,0.0,0.0,2.0
1629794516.96875,0,0,0.0,0.0,2.0
1629794517.4375,0,0,32.366390687950926,0.0,2.0
1629794517.90625,0,0,0.0,0.0,2.0
1629794518.375,0,0,29.47084562607005,0.0,2.0
1629794518.84375,0,0,0.0,0.0,2.0
1629794519.3125,0,0,0.0,0.0,2.0
1629794519.78125,0,0,34.096058807075416,0.0,2.0
1629794520.25,0,0,0.0,0.0,2.0
1629794520.71875,0,0,28.95735967458993,0.0,2.0
1629794521.1875,0,0,0.0,0.0,2.0
1629794521.65625,0,0,30.567679928670934,0.0,2.0
1629794522.125,0,0,30.958062255701783,0.0,2.0
1629794522.59375,0,0,0.0,0.0,2.0
1629794523.0625,0,0,34.75982492007059,0.0,2.0
1629794523.53125,0,0,0.0,0.0,2.0
1629794524.0,0,0,32.87971470118153,0.0,2.0
1629794524.46875,0,0,32.08118901413705,0.0,2.0
1629794524.9375,0,0,0.0,0.0,2.0
1629794525.40625,0,0,31.260024596957717,0.0,2.0
1629794525.875,0,0,0.0,0.0,2.0
1629794526.34375,0,0,0.0,0.0,2.0
1629794526.8125,0,0,32.43579656512175,0.0,2.0
1629794527.28125,0,0,0.0,0.0,2.0
1629794527.75,0,0,28.521634022554842,0.0,2.0
1629794528.21875,0,0,0.0,0.0,2.0
1629794528.6875,0,0,0.0,0.0,2.0
1629794529.15625,0,0,32.62759689829004,0.0,2.0
1629794529.625,0,0,0.0,0.0,2.0
1629794530.09375,0,0,31.177378637240295,0.0,2.0
1629794530.5625,0,0,30.706673496114664,0.0,2.0
1629794531.03125,0,0,0.0,0.0,2.0
1629794531.5,0,0,37.259640500761535,0.0,2.0
1629794531.96875,0,0,0.0,0.0,2.0
1629794532.4375,0,0,32.36922064314009,0.0,2.0
1629794532.90625,0,0,32.27492963451429,0.0,2.0
1629794533.375,0,0,0.0,0.0,2.0
1629794533.84375,0,0,34.92362727930178,0.0,2.0
1629794534.3125,0,0,0.0,0.0,2.0
1629794534.78125,0,0,18.661299178674078,0.0,2.0
1629794535.25,0,0,0.0,0.0,2.0
1629794535.71875,0,0,0.0,0.0,2.0
1629794536.1875,0,0,72.45398051480093,0.0,2.0
1629794536.65625,0,0,34.84245094946422,0.0,2.0
1629794537.125,0,0,84.72991367401065,0.0,2.0
1629794537.59375,0,0,0.0,0.0,2.0
1629794538.0625,0,0,16.879918242530476,0.0,2.0
1629794538.53125,0,0,0.0,0.0,2.0
1629794539.0,0,0,31.21964489082945,0.0,2.0
1629794539.46875,0,0,0.0,0.0,2.0
1629794539.9375,0,0,64.31212337456753,0.0,2.0
1629794540.40625,0,0,1.1292230769259768,0.0,2.0
1629794540.875,0,0,-1.3418196140392962,0.0,2.0
1629794541.34375,0,0,39.784383085110065,0.0,2.0
1629794541.8125,0,0,0.0,0.0,2.0
1629794542.28125,0,0,24.920269383646634,0.0,2.0
1629794542.75,0,0,0.0,0.0,2.0
1629794543.21875,0,0,26.262987321497093,0.0,2.0
1629794543.6875,0,0,24.923877233250074,0.0,2.0
1629794544.15625,0,0,26.650002659232218,0.0,2.0
1629794544.625,0,0,0.0,0.0,2.0
1629794545.09375,0,0,0.0,0.0,2.0
1629794545.5625,0,0,20.93231367461197,0.0,2.0
1629794546.03125,0,0,0.0,0.0,2.0
1629794546.5,0,0,26.337147611369332,0.0,2.0
1629794546.96875,0,0,0.0,0.0,2.0
1629794547.4375,0,0,28.263758163265468,0.0,2.0
1629794547.90625,0,0,0.0,0.0,2.0
1629794548.375,0,0,0.0,0.0,2.0
1629794548.84375,0,0,31.590914250505023,0.0,2.0
1629794549.3125,0,0,0.0,0.0,2.0
1629794549.78125,0,0,34.179605791038846,0.0,2.0
1629794550.25,0,0,0.0,0.0,2.0
1629794550.71875,0,0,36.39439950929336,0.0,2.0
1629794551.1875,0,0,36.44407127879489,0.0,2.0
1629794551.65625,0,0,0.0,0.0,2.0
1629794552.125,0,0,49.421345445973714,0.0,2.0
1629794552.59375,0,0,0.0,0.0,2.0
1629794553.0625,0,0,47.5086143120622,0.0,2.0
1629794553.53125,0,0,0.0,0.0,2.0
1629794554.0,0,0,43.76866387329359,0.0,2.0
1629794554.46875,0,0,0.0,0.0,2.0
1629794554.9375,0,0,52.97398154762614,0.0,2.0
1629794555.40625,0,0,0.0,0.0,2.0
1629794555.875,0,0,0.0,0.0,2.0
1629794556.34375,0,0,48.46519123800095,0.0,2.0
1629794556.8125,0,0,0.0,0.0,2.0
1629794557.28125,0,0,48.852306038218124,0.0,2.0
1629794557.75,0,0,0.0,0.0,2.0
1629794558.21875,0,0,57.24643662329764,0.0,2.0
1629794558.6875,0,0,0.0,0.0,2.0
1629794559.15625,0,0,0.0,0.0,2.0
1629794559.625,0,0,51.84859178743047,0.0,2.0
1629794560.09375,0,0,0.0,0.0,2.0
1629794560.5625,0,0,41.590356782964996,0.0,2.0
1629794561.03125,0,0,0.0,0.0,2.0
1629794561.5,0,0,0.0,0.0,2.0
1629794561.96875,0,0,43.072829599549465,0.0,2.0
1629794562.4375,0,0,0.0,0.0,2.0
1629794562.90625,0,0,39.994559193774,0.0,2.0
1629794563.375,0,0,0.0,0.0,2.0
1629794563.84375,0,0,0.0,0.0,2.0
1629794564.3125,0,0,34.67682838065804,0.0,2.0
1629794564.78125,0,0,0.0,0.0,2.0
1629794565.25,0,0,39.085015123245725,0.0,2.0
1629794565.71875,0,0,0.0,0.0,2.0
1629794566.1875,0,0,0.0,0.0,2.0
1629794566.65625,0,0,39.12197542623438,0.0,2.0
1629794567.125,0,0,0.0,0.0,2.0
1629794567.59375,0,0,39.62063741263719,0.0,2.0
1629794568.0625,0,0,0.0,0.0,2.0
1629794568.53125,0,0,0.0,0.0,2.0
1629794569.0,0,0,41.26762975579471,0.0,2.0
1629794569.46875,0,0,0.0,0.0,2.0
1629794569.9375,0,0,44.90013983709452,0.0,2.0
1629794570.40625,0,0,0.0,0.0,2.0
1629794570.875,0,0,32.245712267123636,0.0,2.0
1629794571.34375,0,0,0.0,0.0,2.0
1629794571.8125,0,0,13.562691572966386,0.0,2.0
1629794572.28125,0,0,58.57110211704891,0.0,2.0
1629794572.75,0,0,0.0,0.0,2.0
1629794573.21875,0,0,92.0854253004715,0.0,2.0
1629794573.6875,0,0,92.22484109255213,0.0,2.0
1629794574.15625,0,0,-28.365201761207118,0.0,2.0
1629794574.625,0,0,0.0,0.0,2.0
1629794575.09375,0,0,142.51810810014067,0.0,2.0
1629794575.5625,0,0,0.0,0.0,2.0
1629794576.03125,0,0,12.676899247763988,0.0,2.0
1629794576.5,0,0,37.41116221988654,0.0,2.0
1629794576.96875,0,0,87.62836940776647,0.0,2.0
1629794577.4375,0,0,41.01498852670028,0.0,2.0
1629794577.90625,0,0,32.722547449911694,0.0,2.0
1629794578.375,0,0,99.69200246660262,0.0,2.0
1629794578.84375,0,0,0.0,0.0,2.0
1629794579.3125,0,0,58.46105971406004,0.0,2.0
1629794579.78125,0,0,0.0,0.0,2.0
1629794580.25,0,0,29.610169674810933,0.0,2.0
1629794580.71875,0,0,0.0,0.0,2.0
1629794581.1875,0,0,32.773991060386564,0.0,2.0
1629794581.65625,0,0,0.0,0.0,2.0
1629794582.125,0,0,44.73614984995912,0.0,2.0
1629794582.59375,0,0,0.0,0.0,2.0
1629794583.0625,0,0,45.14318627077448,0.0,2.0
1629794583.53125,0,0,0.0,0.0,2.0
1629794584.0,0,0,36.86910658861575,0.0,2.0
1629794584.46875,0,0,0.0,0.0,2.0
1629794584.9375,0,0,47.78744938226125,0.0,2.0
1629794585.40625,0,0,0.0,0.0,2.0
1629794585.875,0,0,32.73926680679572,0.0,2.0
1629794586.34375,0,0,30.042477560780586,0.0,2.0
1629794586.8125,0,0,3.1204861062841096,0.0,2.0
1629794587.28125,0,0,51.80069388981696,0.0,2.0
1629794587.75,0,0,0.0,0.0,2.0
1629794588.21875,0,0,0.0,0.0,2.0
1629794588.6875,0,0,48.083027560823865,0.0,2.0
1629794589.15625,0,0,0.0,0.0,2.0
1629794589.625,0,0,51.48650198646403,0.0,2.0
1629794590.09375,0,0,0.0,0.0,2.0
1629794590.5625,0,0,59.847746307430306,0.0,2.0
1629794591.03125,0,0,23.364745082029682,0.0,2.0
1629794591.5,0,0,68.573084457504,0.0,2.0
1629794591.96875,0,0,0.0,0.0,2.0
1629794592.4375,0,0,46.981132508879384,0.0,2.0
1629794592.90625,0,0,0.0,0.0,2.0
1629794593.375,0,0,49.00124695365112,0.0,2.0
1629794593.84375,0,0,21.567541127794424,0.0,2.0
1629794594.3125,0,0,17.570375027820415,0.0,2.0
1629794594.78125,0,0,30.980951479656664,0.0,2.0
1629794595.25,0,0,0.0,0.0,2.0
1629794595.71875,0,0,37.378273434858144,0.0,2.0
1629794596.1875,0,0,0.0,0.0,2.0
1629794596.65625,0,0,28.96418773893848,0.0,2.0
1629794597.125,0,0,0.0,0.0,2.0
1629794597.59375,0,0,30.138975561353938,0.0,2.0
1629794598.0625,0,0,29.615493453987302,0.0,2.0
1629794598.53125,0,0,0.0,0.0,2.0
1629794599.0,0,0,43.45275341637453,0.0,2.0
1629794599.46875,0,0,0.0,0.0,2.0
1629794599.9375,0,0,36.64077891677276,0.0,2.0
1629794600.40625,0,0,0.0,0.0,2.0
1629794600.875,0,0,24.992611307442456,0.0,2.0
1629794601.34375,0,0,23.700860622906774,0.0,2.0
1629794601.8125,0,0,0.0,0.0,2.0
1629794602.28125,0,0,32.8959403857778,0.0,2.0
1629794602.75,0,0,0.0,0.0,2.0
1629794603.21875,0,0,0.0,0.0,2.0
1629794603.6875,0,0,35.20229591477945,0.0,2.0
1629794604.15625,0,0,0.0,0.0,2.0
1629794604.625,0,0,38.86648521662575,0.0,2.0
1629794605.09375,0,0,0.0,0.0,2.0
1629794605.5625,0,0,48.52276925331138,0.0,2.0
1629794606.03125,0,0,0.0,0.0,2.0
1629794606.5,0,0,43.88776824368535,0.0,2.0
1629794606.96875,0,0,42.125346718182946,0.0,2.0
1629794607.4375,0,0,0.0,0.0,2.0
1629794607.90625,0,0,36.30392110087762,0.0,2.0
1629794608.375,0,0,0.0,0.0,2.0
1629794608.84375,0,0,43.272123203411034,0.0,2.0
1629794609.3125,0,0,0.0,0.0,2.0
1629794609.78125,0,0,64.30364239920674,0.0,2.0
1629794610.25,0,0,0.0,0.0,2.0
1629794610.71875,0,0,0.0,0.0,2.0
1629794611.1875,0,0,0.0,0.0,2.0
1629794611.65625,0,0,0.0,0.0,2.0
1629794612.125,0,0,44.44669044046009,0.0,2.0
1629794612.59375,0,0,0.0,0.0,2.0
1629794613.0625,0,0,48.46929260550946,0.0,2.0
1629794613.53125,0,0,0.0,0.0,2.0
1629794614.0,0,0,38.51092285018482,0.0,2.0
1629794614.46875,0,0,39.949708782588964,0.0,2.0
1629794614.9375,0,0,0.0,0.0,2.0
1629794615.40625,0,0,8.825409549047741,0.0,2.0
1629794615.875,0,0,54.938352250016784,0.0,2.0
1629794616.34375,0,0,20.791474168185527,0.0,2.0
1629794616.8125,0,0,56.43509771458175,0.0,2.0
1629794617.28125,0,0,-39.75349488542424,0.0,2.0
1629794617.75,0,0,81.82203037170389,0.0,2.0
1629794618.21875,0,0,0.0,0.0,2.0
1629794618.6875,0,0,62.74605850357097,0.0,2.0
1629794619.15625,0,0,0.0,0.0,2.0
1629794619.625,0,0,0.0,0.0,2.0
1629794620.09375,0,0,23.74871729491423,0.0,2.0
1629794620.5625,0,0,0.0,0.0,2.0
1629794621.03125,0,0,28.18241973361951,0.0,2.0
1629794621.5,0,0,0.0,0.0,2.0
1629794621.96875,0,0,0.0,0.0,2.0
1629794622.4375,0,0,0.0,0.0,2.0
1629794622.90625,0,0,0.0,0.0,2.0
1629794623.375,0,0,38.27241274409902,0.0,2.0
1629794623.84375,0,0,0.0,0.0,2.0
1629794624.3125,0,0,36.39384968630412,0.0,2.0
1629794624.78125,0,0,0.0,0.0,2.0
1629794625.25,0,0,41.481869534489086,0.0,2.0
1629794625.71875,0,0,41.37869992241022,0.0,2.0
1629794626.1875,0,0,0.0,0.0,2.0
1629794626.65625,0,0,38.517308543976895,0.0,2.0
1629794627.125,0,0,0.0,0.0,2.0
1629794627.59375,0,0,65.15635287112289,0.0,2.0
1629794628.0625,0,0,0.0,0.0,2.0
1629794628.53125,0,0,0.0,0.0,2.0
1629794629.0,0,0,57.148625491972204,0.0,2.0
1629794629.46875,0,0,0.0,0.0,2.0
1629794629.9375,0,0,44.04022629104628,0.0,2.0
1629794630.40625,0,0,0.0,0.0,2.0
1629794630.875,0,0,0.0,0.0,2.0
1629794631.34375,0,0,46.39218977438677,0.0,2.0
1629794631.8125,0,0,0.0,0.0,2.0
1629794632.28125,0,0,49.54255565696104,0.0,2.0
1629794632.75,0,0,0.0,0.0,2.0
1629794633.21875,0,0,43.00653680105121,0.0,2.0
1629794633.6875,0,0,0.0,0.0,2.0
1629794634.15625,0,0,38.69470500382718,0.0,2.0
1629794634.625,0,0,39.20881653525556,0.0,2.0
1629794635.09375,0,0,0.0,0.0,2.0
1629794635.5625,0,0,45.6204796182815,0.0,2.0
1629794636.03125,0,0,0.0,0.0,2.0
1629794636.5,0,0,40.144499491411345,0.0,2.0
1629794636.96875,0,0,0.0,0.0,2.0
1629794637.4375,0,0,0.0,0.0,2.0
1629794637.90625,0,0,0.0,0.0,2.0
1629794638.375,0,0,0.0,0.0,2.0
1629794638.84375,0,0,39.822117812302714,0.0,2.0
1629794639.3125,0,0,0.0,0.0,2.0
1629794639.78125,0,0,35.44152596157387,0.0,2.0
1629794640.25,0,0,33.7032947792963,0.0,2.0
1629794640.71875,0,0,0.0,0.0,2.0
1629794641.1875,0,0,50.99687310547914,0.0,2.0
1629794641.65625,0,0,0.0,0.0,2.0
1629794642.125,0,0,-11.19575236413486,0.0,2.0
1629794642.59375,0,0,40.59640943450562,0.0,2.0
1629794643.0625,0,0,104.72076732998431,0.0,2.0
1629794643.53125,0,0,40.9317157449983,0.0,2.0
1629794644.0,0,0,0.0,0.0,2.0
1629794644.46875,0,0,233.73346651518534,0.0,2.0
1629794644.9375,0,0,0.0,0.0,3.0
1629794645.40625,0,0,13.117519920594686,0.0,3.0
1629794645.875,0,0,0.0,0.0,3.0
1629794646.34375,0,0,48.41988759031441,0.0,3.0
1629794646.8125,0,0,52.016965581161436,0.0,3.0
1629794647.28125,0,0,0.0,0.0,3.0
1629794647.75,0,0,118.01363217573467,0.0,3.0
1629794648.21875,0,0,49.735378816919386,0.0,3.0
1629794648.6875,0,0,44.14961737091187,0.0,3.0
1629794649.15625,0,0,0.0,0.0,3.0
1629794649.625,0,0,0.0,0.0,3.0
1629794650.09375,0,0,0.0,0.0,3.0
1629794650.5625,0,0,0.0,0.0,3.0
1629794651.03125,0,0,62.42069969536044,0.0,3.0
1629794651.5,0,0,0.0,0.0,3.0
1629794651.96875,0,0,234.67607652391953,0.0,3.0
1629794652.4375,0,0,0.0,0.0,3.0
1629794652.90625,0,0,0.0,0.0,3.0
1629794653.375,0,0,25.091065863434075,0.0,3.0
1629794653.84375,0,0,14.162611939861725,0.0,3.0
1629794654.3125,0,0,50.57448169852164,0.0,3.0
1629794654.78125,0,0,37.60810716873959,0.0,3.0
1629794655.25,0,0,28.15259264514599,0.0,3.0
1629794655.71875,0,0,23.614259277387212,0.0,3.0
1629794656.1875,0,0,22.597008596155447,0.0,3.0
1629794656.65625,0,0,25.70887381051971,0.0,3.0
1629794657.125,0,0,27.78564535148165,0.0,3.0
1629794657.59375,0,0,0.0,0.0,3.0
1629794658.0625,0,0,0.0,0.0,3.0
1629794658.53125,0,0,27.64219703909846,0.0,3.0
1629794659.0,0,0,0.0,0.0,3.0
1629794659.46875,0,0,121.98788358213999,0.0,3.0
1629794659.9375,0,0,0.0,0.0,3.0
1629794660.40625,0,0,48.855250407024386,0.0,3.0
1629794660.875,0,0,0.0,0.0,3.0
1629794661.34375,0,0,90.36702661641557,0.0,3.0
1629794661.8125,0,0,44.437862790618276,0.0,3.0
1629794662.28125,0,0,0.0,0.0,3.0
1629794662.75,0,0,49.37336538880697,0.0,3.0
1629794663.21875,0,0,83.87045718094504,0.0,3.0
1629794663.6875,0,0,67.46190183670561,0.0,3.0
1629794664.15625,0,0,0.0,0.0,3.0
1629794664.625,0,0,10.750057268763966,0.0,3.0
1629794665.09375,0,0,114.59273178451622,0.0,3.0
1629794665.5625,0,0,0.0,0.0,3.0
1629794666.03125,0,0,77.8462404637286,0.0,3.0
1629794666.5,0,0,0.0,0.0,3.0
1629794666.96875,0,0,80.53590379218934,0.0,3.0
1629794667.4375,0,0,0.0,0.0,3.0
1629794667.90625,0,0,0.0,0.0,3.0
1629794668.375,0,0,0.0,0.0,3.0
1629794668.84375,0,0,104.43104387779552,0.0,3.0
1629794669.3125,0,0,-68.82760942123014,0.0,3.0
1629794669.78125,0,0,101.08361083256047,0.0,3.0
1629794670.25,0,0,0.0,0.0,3.0
1629794670.71875,0,0,111.49994913655117,0.0,3.0
1629794671.1875,0,0,7.839658129169838,0.0,3.0
1629794671.65625,0,0,35.049852018771034,0.0,3.0
1629794672.125,0,0,21.82463412575536,0.0,3.0
1629794672.59375,0,0,86.48784601161093,0.0,3.0
1629794673.0625,0,0,0.0,0.0,3.0
1629794673.53125,0,0,77.6071673075041,0.0,3.0
1629794674.0,0,0,-7.269774382907693,0.0,3.0
1629794674.46875,0,0,24.588300913492954,0.0,3.0
1629794674.9375,0,0,35.755872563148856,0.0,3.0
1629794675.40625,0,0,0.0,0.0,3.0
1629794675.875,0,0,44.46104538081652,0.0,3.0
1629794676.34375,0,0,27.48254804901266,0.0,3.0
1629794676.8125,0,0,28.626404757135887,0.0,3.0
1629794677.28125,0,0,0.0,0.0,3.0
1629794677.75,0,0,32.295937204623755,0.0,3.0
1629794678.21875,0,0,12.491392354691019,0.0,3.0
1629794678.6875,0,0,32.6295158701013,0.0,3.0
1629794679.15625,0,0,0.0,0.0,3.0
1629794679.625,0,0,42.68851704216571,0.0,3.0
1629794680.09375,0,0,34.6249901897882,0.0,3.0
1629794680.5625,0,0,0.0,0.0,3.0
1629794681.03125,0,0,52.07784602064226,0.0,3.0
1629794681.5,0,0,53.19127121445074,0.0,3.0
1629794681.96875,0,0,72.10708936122286,0.0,3.0
1629794682.4375,0,0,0.0,0.0,3.0
1629794682.90625,0,0,52.602029413506045,0.0,3.0
1629794683.375,0,0,50.43799491552285,0.0,3.0
1629794683.84375,0,0,59.83317495451563,0.0,3.0
1629794684.3125,0,0,0.0,0.0,3.0
1629794684.78125,0,0,73.75393744065877,0.0,3.0
1629794685.25,0,0,59.62626738595603,0.0,3.0
1629794685.71875,0,0,57.66999607226476,0.0,3.0
1629794686.1875,0,0,0.0,0.0,3.0
1629794686.65625,0,0,58.45749139117305,0.0,3.0
1629794687.125,0,0,0.0,0.0,3.0
1629794687.59375,0,0,96.23098485803936,0.0,3.0
1629794688.0625,0,0,0.0,0.0,3.0
1629794688.53125,0,0,90.3097118777603,0.0,3.0
1629794689.0,0,0,0.0,0.0,3.0
1629794689.46875,0,0,137.81741903105748,0.0,3.0
1629794689.9375,0,0,0.0,0.0,3.0
1629794690.40625,0,0,96.18451230101182,0.0,3.0
1629794690.875,0,0,0.0,0.0,3.0
1629794691.34375,0,0,0.0,0.0,3.0
1629794691.8125,0,0,0.0,0.0,3.0
1629794692.28125,0,0,92.91797932643969,0.0,3.0
1629794692.75,0,0,0.0,0.0,3.0
1629794693.21875,0,0,136.70751014378217,0.0,3.0
1629794693.6875,0,0,-91.69557073891107,0.0,3.0
1629794694.15625,0,0,67.4520298336017,0.0,3.0
1629794694.625,0,0,0.0,0.0,3.0
1629794695.09375,0,0,0.0,0.0,3.0
1629794695.5625,0,0,0.0,0.0,3.0
1629794696.03125,0,0,85.8070635789059,0.0,3.0
1629794696.5,0,0,0.0,0.0,3.0
1629794696.96875,0,0,0.0,0.0,3.0
1629794697.4375,0,0,132.57516573997694,0.0,3.0
1629794697.90625,0,0,79.8801839796737,0.0,3.0
1629794698.375,0,0,0.0,0.0,3.0
1629794698.84375,0,0,0.0,0.0,3.0
1629794699.3125,0,0,0.0,0.0,3.0
1629794699.78125,0,0,-80.26630736709255,0.0,3.0
1629794700.25,0,0,0.0,0.0,3.0
1629794700.71875,0,0,86.616808678283,0.0,3.0
1629794701.1875,0,0,0.0,0.0,3.0
1629794701.65625,0,0,-32.04092444319836,0.0,3.0
1629794702.125,0,0,66.4261519427317,0.0,3.0
1629794702.59375,0,0,0.0,0.0,3.0
1629794703.0625,0,0,45.96522980346493,0.0,3.0
1629794703.53125,0,0,0.0,0.0,3.0
1629794704.0,0,0,69.3209200102486,0.0,3.0
1629794704.46875,0,0,0.0,0.0,3.0
1629794704.9375,0,0,84.46578402837034,0.0,3.0
1629794705.40625,0,0,0.0,0.0,3.0
1629794705.875,0,0,10.562493203233956,0.0,3.0
1629794706.34375,0,0,0.0,0.0,3.0
1629794706.8125,0,0,0.0,0.0,3.0
1629794707.28125,0,0,11.110339983887506,0.0,3.0
1629794707.75,0,0,35.384636670047705,0.0,3.0
1629794708.21875,0,0,36.969358167016416,0.0,3.0
1629794708.6875,0,0,0.0,0.0,3.0
1629794709.15625,0,0,31.49851769258425,0.0,3.0
1629794709.625,0,0,0.0,0.0,3.0
1629794710.09375,0,0,0.0,0.0,3.0
1629794710.5625,0,0,117.44421039327673,0.0,3.0
1629794711.03125,0,0,0.0,0.0,3.0
1629794711.5,0,0,0.0,0.0,3.0
1629794711.96875,0,0,63.75116455877334,0.0,3.0
1629794712.4375,0,0,0.0,0.0,3.0
1629794712.90625,0,0,49.984726599336284,0.0,3.0
1629794713.375,0,0,0.0,0.0,3.0
1629794713.84375,0,0,54.41528791095448,0.0,3.0
1629794714.3125,0,0,0.0,0.0,3.0
1629794714.78125,0,0,0.0,0.0,3.0
1629794715.25,0,0,29.325926386980388,0.0,3.0
1629794715.71875,0,0,25.79226656667529,0.0,3.0
1629794716.1875,0,0,0.0,0.0,3.0
1629794716.65625,0,0,0.0,0.0,3.0
1629794717.125,0,0,8.095551542925936,0.0,3.0
1629794717.59375,0,0,45.13751772945282,0.0,3.0
1629794718.0625,0,0,41.75328575047956,0.0,3.0
1629794718.53125,0,0,0.0,0.0,3.0
1629794719.0,0,0,51.96526064989381,0.0,3.0
1629794719.46875,0,0,48.74658078681934,0.0,3.0
1629794719.9375,0,0,46.7576076126254,0.0,3.0
1629794720.40625,0,0,36.58886383126691,0.0,3.0
1629794720.875,0,0,0.0,0.0,3.0
1629794721.34375,0,0,64.6373324172968,0.0,3.0
1629794721.8125,0,0,36.21321137952098,0.0,3.0
1629794722.28125,0,0,38.089925929001524,0.0,3.0
1629794722.75,0,0,0.0,0.0,3.0
1629794723.21875,0,0,53.305091823276356,0.0,3.0
1629794723.6875,0,0,28.13505583002223,0.0,3.0
1629794724.15625,0,0,39.180836898574526,0.0,3.0
1629794724.625,0,0,0.0,0.0,3.0
1629794725.09375,0,0,36.16990445218479,0.0,3.0
1629794725.5625,0,0,67.3330416100442,0.0,3.0
1629794726.03125,0,0,51.63353057415431,0.0,3.0
1629794726.5,0,0,0.0,0.0,3.0
1629794726.96875,0,0,0.0,0.0,3.0
1629794727.4375,0,0,62.166431777526135,0.0,3.0
1629794727.90625,0,0,61.26651762507804,0.0,3.0
1629794728.375,0,0,65.48673410638838,0.0,3.0
1629794728.84375,0,0,0.0,0.0,3.0
1629794729.3125,0,0,89.60122236738584,0.0,3.0
1629794729.78125,0,0,0.0,0.0,3.0
1629794730.25,0,0,78.64048858935814,0.0,3.0
1629794730.71875,0,0,0.0,0.0,3.0
1629794731.1875,0,0,55.25214340784585,0.0,3.0
1629794731.65625,0,0,58.02886839293258,0.0,3.0
1629794732.125,0,0,36.66828066595972,0.0,3.0
1629794732.59375,0,0,0.0,0.0,3.0
1629794733.0625,0,0,136.36104859011752,0.0,3.0
1629794733.53125,0,0,0.0,0.0,3.0
1629794734.0,0,0,76.20629215697588,0.0,3.0
1629794734.46875,0,0,0.0,0.0,3.0
1629794734.9375,0,0,187.74338525882513,0.0,3.0
1629794735.40625,0,0,0.0,0.0,3.0
1629794735.875,0,0,0.0,0.0,3.0
1629794736.34375,0,0,70.22104521558643,0.0,3.0
1629794736.8125,0,0,0.0,0.0,3.0
1629794737.28125,0,0,152.4432465242651,0.0,3.0
1629794737.75,0,0,-45.145968165840564,0.0,3.0
1629794738.21875,0,0,78.47848324090033,0.0,3.0
1629794738.6875,0,0,17.964911328330842,0.0,3.0
1629794739.15625,0,0,0.0,0.0,3.0
1629794739.625,0,0,26.2243556600936,0.0,3.0
1629794740.09375,0,0,63.34898180259003,0.0,3.0
1629794740.5625,0,0,65.02597634298287,0.0,3.0
1629794741.03125,0,0,79.5955213805836,0.0,3.0
1629794741.5,0,0,17.268733138640783,0.0,3.0
1629794741.96875,0,0,0.0,0.0,3.0
1629794742.4375,0,0,63.09075168926223,0.0,3.0
1629794742.90625,0,0,33.27724659957465,0.0,3.0
1629794743.375,0,0,46.34181388288739,0.0,3.0
1629794743.84375,0,0,0.0,0.0,3.0
1629794744.3125,0,0,62.028065112714145,0.0,3.0
1629794744.78125,0,0,68.04155856909144,0.0,3.0
1629794745.25,0,0,62.5487821126808,0.0,3.0
1629794745.71875,0,0,0.0,0.0,3.0
1629794746.1875,0,0,49.03380154774567,0.0,3.0
1629794746.65625,0,0,49.38077138459885,0.0,3.0
1629794747.125,0,0,0.0,0.0,3.0
1629794747.59375,0,0,40.89008318603689,0.0,3.0
1629794748.0625,0,0,0.0,0.0,3.0
1629794748.53125,0,0,127.33308960180354,0.0,3.0
1629794749.0,0,0,0.0,0.0,3.0
1629794749.46875,0,0,74.23315730268739,0.0,3.0
1629794749.9375,0,0,0.0,0.0,3.0
1629794750.40625,0,0,158.83464335895312,0.0,3.0
1629794750.875,0,0,-67.18908886152654,0.0,3.0
1629794751.34375,0,0,73.44077796687176,0.0,3.0
1629794751.8125,0,0,0.0,0.0,3.0
1629794752.28125,0,0,181.43719977891868,0.0,3.0
1629794752.75,0,0,0.0,0.0,3.0
1629794753.21875,0,0,102.1534791865254,0.0,3.0
1629794753.6875,0,0,0.0,0.0,3.0
1629794754.15625,0,0,114.3704207999443,0.0,3.0
1629794754.625,0,0,-20.407436909892766,0.0,3.0
1629794755.09375,0,0,0.0,0.0,3.0
1629794755.5625,0,0,78.74371606145014,0.0,3.0
1629794756.03125,0,0,12.570927224653074,0.0,3.0
1629794756.5,0,0,0.0,0.0,3.0
1629794756.96875,0,0,25.658344776606636,0.0,3.0
1629794757.4375,0,0,85.79422037498207,0.0,3.0
1629794757.90625,0,0,0.0,0.0,3.0
1629794758.375,0,0,0.0,0.0,3.0
1629794758.84375,0,0,166.89557294369087,0.0,3.0
1629794759.3125,0,0,-108.28010441612282,0.0,3.0
1629794759.78125,0,0,0.0,0.0,3.0
1629794760.25,0,0,0.0,0.0,3.0
1629794760.71875,0,0,0.0,0.0,3.0
1629794761.1875,0,0,0.0,0.0,3.0
1629794761.65625,0,0,49.45499731705632,0.0,3.0
1629794762.125,0,0,0.0,0.0,3.0
1629794762.59375,0,0,43.780803192225335,0.0,3.0
1629794763.0625,0,0,0.0,0.0,3.0
1629794763.53125,0,0,92.19732062780743,0.0,3.0
1629794764.0,0,0,-14.346966773273255,0.0,3.0
1629794764.46875,0,0,0.0,0.0,3.0
1629794764.9375,0,0,111.82905768300004,0.0,3.0
1629794765.40625,0,0,70.30013687360388,0.0,3.0
1629794765.875,0,0,0.0,0.0,3.0
1629794766.34375,0,0,0.0,0.0,3.0
1629794766.8125,0,0,41.037755896012065,0.0,3.0
1629794767.28125,0,0,0.0,0.0,3.0
1629794767.75,0,0,47.10202775490909,0.0,3.0
1629794768.21875,0,0,0.0,0.0,3.0
1629794768.6875,0,0,37.39017947812635,0.0,3.0
1629794769.15625,0,0,0.0,0.0,3.0
1629794769.625,0,0,56.232709229566694,0.0,3.0
1629794770.09375,0,0,0.0,0.0,3.0
1629794770.5625,0,0,39.49817294898211,0.0,3.0
1629794771.03125,0,0,0.0,0.0,3.0
1629794771.5,0,0,3.829842075270212,0.0,3.0
1629794771.96875,0,0,74.749601446741,0.0,3.0
1629794772.4375,0,0,0.0,0.0,3.0
1629794772.90625,0,0,151.8471636675141,0.0,3.0
1629794773.375,0,0,0.0,0.0,3.0
1629794773.84375,0,0,76.42363982508158,0.0,3.0
1629794774.3125,0,0,0.0,0.0,3.0
1629794774.78125,0,0,0.0,0.0,3.0
1629794775.25,0,0,145.57731438322224,0.0,3.0
1629794775.71875,0,0,-96.69389575269793,0.0,3.0
1629794776.1875,0,0,0.0,0.0,3.0
1629794776.65625,0,0,0.0,0.0,3.0
1629794777.125,0,0,158.67253234894915,0.0,3.0
1629794777.59375,0,0,-55.49006612479936,0.0,3.0
1629794778.0625,0,0,75.34511705398691,0.0,3.0
1629794778.53125,0,0,0.0,0.0,3.0
1629794779.0,0,0,156.89252964542092,0.0,3.0
1629794779.46875,0,0,0.0,0.0,3.0
1629794779.9375,0,0,77.25009873355297,0.0,3.0
1629794780.40625,0,0,0.0,0.0,3.0
1629794780.875,0,0,130.82924302193047,0.0,3.0
1629794781.34375,0,0,-58.005750085240216,0.0,3.0
1629794781.8125,0,0,62.99440966810408,0.0,3.0
1629794782.28125,0,0,0.0,0.0,3.0
1629794782.75,0,0,126.66809704647959,0.0,3.0
1629794783.21875,0,0,-16.91711815030492,0.0,3.0
1629794783.6875,0,0,67.17837738366724,0.0,3.0
1629794784.15625,0,0,0.0,0.0,3.0
1629794784.625,0,0,69.03521248433448,0.0,3.0
1629794785.09375,0,0,0.34009832231924564,0.0,3.0
1629794785.5625,0,0,0.0,0.0,3.0
1629794786.03125,0,0,0.0,0.0,3.0
1629794786.5,0,0,51.58010173431547,0.0,3.0
1629794786.96875,0,0,43.4622139496727,0.0,3.0
1629794787.4375,0,0,0.0,0.0,3.0
1629794787.90625,0,0,57.22841101791961,0.0,3.0
1629794788.375,0,0,46.99940891036603,0.0,3.0
1629794788.84375,0,0,59.23158599862003,0.0,3.0
1629794789.3125,0,0,0.0,0.0,3.0
1629794789.78125,0,0,0.0,0.0,3.0
1629794790.25,0,0,106.38388292241648,0.0,3.0
1629794790.71875,0,0,71.5704115447106,0.0,3.0
1629794791.1875,0,0,0.0,0.0,3.0
1629794791.65625,0,0,0.0,0.0,3.0
1629794792.125,0,0,115.7145248814001,0.0,3.0
1629794792.59375,0,0,91.58752377257493,0.0,3.0
1629794793.0625,0,0,0.0,0.0,3.0
1629794793.53125,0,0,0.0,0.0,3.0
1629794794.0,0,0,141.4078183535051,0.0,3.0
1629794794.46875,0,0,0.0,0.0,3.0
1629794794.9375,0,0,79.80646661174791,0.0,3.0
1629794795.40625,0,0,0.0,0.0,3.0
1629794795.875,0,0,136.030942477643,0.0,3.0
1629794796.34375,0,0,0.0,0.0,3.0
1629794796.8125,0,0,100.08302476781371,0.0,3.0
1629794797.28125,0,0,0.0,0.0,3.0
1629794797.75,0,0,98.50618059241148,0.0,3.0
1629794798.21875,0,0,82.48540249988082,0.0,3.0
1629794798.6875,0,0,78.71514477428171,0.0,3.0
1629794799.15625,0,0,0.0,0.0,3.0
1629794799.625,0,0,178.41208113902047,0.0,3.0
1629794800.09375,0,0,0.0,0.0,3.0
1629794800.5625,0,0,0.0,0.0,3.0
1629794801.03125,0,0,40.538753631159565,0.0,3.0
1629794801.5,0,0,165.04493553864094,0.0,3.0
1629794801.96875,0,0,0.0,0.0,3.0
1629794802.4375,0,0,0.0,0.0,3.0
1629794802.90625,0,0,61.11426189808617,0.0,3.0
1629794803.375,0,0,0.0,0.0,3.0
1629794803.84375,0,0,158.6904152247791,0.0,3.0
1629794804.3125,0,0,3.819282431079119,0.0,3.0
1629794804.78125,0,0,56.347593748647256,0.0,3.0
1629794805.25,0,0,0.0,0.0,3.0
1629794805.71875,0,0,73.57959237857406,0.0,3.0
1629794806.1875,0,0,31.752804893158824,0.0,3.0
1629794806.65625,0,0,53.04019611090145,0.0,3.0
1629794807.125,0,0,0.0,0.0,3.0
1629794807.59375,0,0,0.0,0.0,3.0
1629794808.0625,0,0,60.87881596489605,0.0,3.0
1629794808.53125,0,0,51.16920164922901,0.0,3.0
1629794809.0,0,0,65.20373588753417,0.0,3.0
1629794809.46875,0,0,73.08724832623189,0.0,3.0
1629794809.9375,0,0,101.92229953702727,0.0,3.0
1629794810.40625,0,0,0.0,0.0,3.0
1629794810.875,0,0,104.79658927081043,0.0,3.0
1629794811.34375,0,0,0.0,0.0,3.0
1629794811.8125,0,0,73.0781920996598,0.0,3.0
1629794812.28125,0,0,0.0,0.0,3.0
1629794812.75,0,0,159.26754167558548,0.0,3.0
1629794813.21875,0,0,-48.38006541405807,0.0,3.0
1629794813.6875,0,0,52.475286089185566,0.0,3.0
1629794814.15625,0,0,0.0,0.0,3.0
1629794814.625,0,0,50.62534646652665,0.0,3.0
1629794815.09375,0,0,37.69877874000913,0.0,3.0
1629794815.5625,0,0,0.0,0.0,3.0
1629794816.03125,0,0,70.04787922430685,0.0,3.0
1629794816.5,0,0,0.0,0.0,3.0
1629794816.96875,0,0,44.20473096950143,0.0,3.0
1629794817.4375,0,0,0.0,0.0,3.0
1629794817.90625,0,0,126.20336812916747,0.0,3.0
1629794818.375,0,0,0.0,0.0,3.0
1629794818.84375,0,0,80.1239886729281,0.0,3.0
1629794819.3125,0,0,10.306599007063541,0.0,3.0
1629794819.78125,0,0,71.51164681709164,0.0,3.0
1629794820.25,0,0,0.0,0.0,3.0
1629794820.71875,0,0,33.44505737915128,0.0,3.0
1629794821.1875,0,0,0.0,0.0,3.0
1629794821.65625,0,0,0.0,0.0,3.0
1629794822.125,0,0,33.89793962786809,0.0,3.0
1629794822.59375,0,0,0.0,0.0,3.0
1629794823.0625,0,0,42.17773820797247,0.0,3.0
1629794823.53125,0,0,0.0,0.0,3.0
1629794824.0,0,0,0.0,0.0,3.0
1629794824.46875,0,0,36.05070599538819,0.0,3.0
1629794824.9375,0,0,0.0,0.0,3.0
1629794825.40625,0,0,36.652445400302156,0.0,3.0
1629794825.875,0,0,0.0,0.0,3.0
1629794826.34375,0,0,37.29740482393199,0.0,3.0
1629794826.8125,0,0,0.0,0.0,3.0
1629794827.28125,0,0,35.514126097968706,0.0,3.0
1629794827.75,0,0,0.0,0.0,3.0
1629794828.21875,0,0,36.94868479921432,0.0,3.0
1629794828.6875,0,0,0.0,0.0,3.0
1629794829.15625,0,0,0.0,0.0,3.0
1629794829.625,0,0,47.99212507208408,0.0,3.0
1629794830.09375,0,0,74.45549078435174,0.0,3.0
1629794830.5625,0,0,0.0,0.0,3.0
1629794831.03125,0,0,62.32538765793323,0.0,3.0
1629794831.5,0,0,0.0,0.0,3.0
1629794831.96875,0,0,139.74880235821607,0.0,3.0
1629794832.4375,0,0,0.0,0.0,3.0
1629794832.90625,0,0,70.56836443166772,0.0,3.0
1629794833.375,0,0,0.0,0.0,3.0
1629794833.84375,0,0,153.8496676373102,0.0,3.0
1629794834.3125,0,0,-2.527142521953831,0.0,3.0
1629794834.78125,0,0,55.610485497494835,0.0,3.0
1629794835.25,0,0,0.0,0.0,3.0
1629794835.71875,0,0,50.44231906718481,0.0,3.0
1629794836.1875,0,0,44.945344621641986,0.0,3.0
1629794836.65625,0,0,0.0,0.0,3.0
1629794837.125,0,0,0.0,0.0,3.0
1629794837.59375,0,0,131.54850316752945,0.0,3.0
1629794838.0625,0,0,83.3039600181806,0.0,3.0
1629794838.53125,0,0,0.0,0.0,3.0
1629794839.0,0,0,0.0,0.0,3.0
1629794839.46875,0,0,0.0,0.0,3.0
1629794839.9375,0,0,5.369281113726655,0.0,3.0
1629794840.40625,0,0,60.611116686537066,0.0,3.0
1629794840.875,0,0,134.08432868730273,0.0,3.0
1629794841.34375,0,0,0.0,0.0,3.0
1629794841.8125,0,0,96.21982096189733,0.0,3.0
1629794842.28125,0,0,0.0,0.0,3.0
1629794842.75,0,0,146.9422694085962,0.0,3.0
1629794843.21875,0,0,0.0,0.0,3.0
1629794843.6875,0,0,142.1810161178925,0.0,3.0
1629794844.15625,0,0,35.84281576015815,0.0,3.0
1629794844.625,0,0,0.0,0.0,3.0
1629794845.09375,0,0,0.0,0.0,3.0
1629794845.5625,0,0,8.843399675915485,0.0,3.0
1629794846.03125,0,0,11.152612822732099,0.0,3.0
1629794846.5,0,0,115.60660966257281,0.0,3.0
1629794846.96875,0,0,0.0,0.0,3.0
1629794847.4375,0,0,57.954379351224766,0.0,3.0
1629794847.90625,0,0,117.46902377587145,0.0,3.0
1629794848.375,0,0,27.160238087744396,0.0,3.0
1629794848.84375,0,0,126.24252428738804,0.0,3.0
