timestamp,mean_pulse_rate,pulse_rate_std,mean_pulse_amplitude,pulse_amplitude_std,block
1629793467.375,0,0,0.0,0.0,1.0
1629793467.84375,0,0,-8.706528031055319,0.0,1.0
1629793468.3125,0,0,0.0,0.0,1.0
1629793468.78125,0,0,0.0,0.0,1.0
1629793469.25,0,0,62.27863428341645,0.0,1.0
1629793469.71875,0,0,154.70201832190614,0.0,1.0
1629793470.1875,0,0,0.0,0.0,1.0
1629793470.65625,0,0,16.476008985136694,0.0,1.0
1629793471.125,0,0,200.84874981143363,0.0,1.0
1629793471.59375,0,0,0.0,0.0,1.0
1629793472.0625,0,0,0.0,0.0,1.0
1629793472.53125,0,0,26.95254762722976,0.0,1.0
1629793473.0,0,0,9.295262718495659,0.0,1.0
1629793473.46875,0,0,21.359883754157725,0.0,1.0
1629793473.9375,0,0,0.0,0.0,1.0
1629793474.40625,0,0,156.37111644675696,0.0,1.0
1629793474.875,0,0,0.0,0.0,1.0
1629793475.34375,0,0,11.248982132532113,0.0,1.0
1629793475.8125,0,0,0.0,0.0,1.0
1629793476.28125,0,0,34.694239675594105,0.0,1.0
1629793476.75,0,0,-15.343246629905117,0.0,1.0
1629793477.21875,0,0,11.377858001099199,0.0,1.0
1629793477.6875,0,0,0.0,0.0,1.0
1629793478.15625,0,0,29.277178701661366,0.0,1.0
1629793478.625,0,0,19.725487407031622,0.0,1.0
1629793479.09375,0,0,0.0,0.0,1.0
1629793479.5625,0,0,65.64481668420171,0.0,1.0
1629793480.03125,0,0,-17.516126917950235,0.0,1.0
1629793480.5,0,0,6.671388427733378,0.0,1.0
1629793480.96875,0,0,0.0,0.0,1.0
1629793481.4375,0,0,47.33491932358185,0.0,1.0
1629793481.90625,0,0,0.0,0.0,1.0
1629793482.375,0,0,13.511441815075752,0.0,1.0
1629793482.84375,0,0,0.0,0.0,1.0
1629793483.3125,0,0,19.757983412843714,0.0,1.0
1629793483.78125,0,0,18.876250485624954,0.0,1.0
1629793484.25,0,0,0.0,0.0,1.0
1629793484.71875,0,0,9.924690861588036,0.0,1.0
1629793485.1875,0,0,53.2723953161112,0.0,1.0
1629793485.65625,0,0,0.0,0.0,1.0
1629793486.125,0,0,21.371199968796574,0.0,1.0
1629793486.59375,0,0,-13.570577023431042,0.0,1.0
1629793487.0625,0,0,39.0528536563751,0.0,1.0
1629793487.53125,0,0,19.055298359184206,0.0,1.0
1629793488.0,0,0,-0.9140042979261955,0.0,1.0
1629793488.46875,0,0,0.0,0.0,1.0
1629793488.9375,0,0,87.21490176564829,0.0,1.0
1629793489.40625,0,0,0.0,0.0,1.0
1629793489.875,0,0,81.82576907014737,0.0,1.0
1629793490.34375,0,0,0.0,0.0,1.0
1629793490.8125,0,0,0.0,0.0,1.0
1629793491.28125,0,0,15.916973418315917,0.0,1.0
1629793491.75,0,0,0.0,0.0,1.0
1629793492.21875,0,0,17.057689839978284,0.0,1.0
1629793492.6875,0,0,0.0,0.0,1.0
1629793493.15625,0,0,16.42155811110384,0.0,1.0
1629793493.625,0,0,7.598425412893252,0.0,1.0
1629793494.09375,0,0,18.241079669277873,0.0,1.0
1629793494.5625,0,0,0.0,0.0,1.0
1629793495.03125,0,0,0.0,0.0,1.0
1629793495.5,0,0,15.752770666030738,0.0,1.0
1629793495.96875,0,0,0.0,0.0,1.0
1629793496.4375,0,0,46.167898170998846,0.0,1.0
1629793496.90625,0,0,66.58897465722188,0.0,1.0
1629793497.375,0,0,33.67830144709645,0.0,1.0
1629793497.84375,0,0,89.10737773236295,0.0,1.0
1629793498.3125,0,0,-58.148507034218234,0.0,1.0
1629793498.78125,0,0,120.769890127363,0.0,1.0
1629793499.25,0,0,0.0,0.0,1.0
1629793499.71875,0,0,105.1146919456073,0.0,1.0
1629793500.1875,0,0,0.0,0.0,1.0
1629793500.65625,0,0,56.263528377072134,0.0,1.0
1629793501.125,0,0,0.0,0.0,1.0
1629793501.59375,0,0,3.4947782880613354,0.0,1.0
1629793502.0625,0,0,-0.3860873926205235,0.0,1.0
1629793502.53125,0,0,0.0,0.0,1.0
1629793503.0,0,0,76.06149419900404,0.0,1.0
1629793503.46875,0,0,-9.01671396607953,0.0,1.0
1629793503.9375,0,0,89.21878571498901,0.0,1.0
1629793504.40625,0,0,107.37800885768874,0.0,1.0
1629793504.875,0,0,0.0,0.0,1.0
1629793505.34375,0,0,26.509380366329605,0.0,1.0
1629793505.8125,0,0,0.0,0.0,1.0
1629793506.28125,0,0,5.808696230130307,0.0,1.0
1629793506.75,0,0,-1.1050211029475796,0.0,1.0
1629793507.21875,0,0,-0.643146134392634,0.0,1.0
1629793507.6875,0,0,61.07612821680727,0.0,1.0
1629793508.15625,0,0,0.0,0.0,1.0
1629793508.625,0,0,74.52376091779523,0.0,1.0
1629793509.09375,0,0,182.70488540559168,0.0,1.0
1629793509.5625,0,0,0.0,0.0,1.0
1629793510.03125,0,0,71.83320490804009,0.0,1.0
1629793510.5,0,0,0.0,0.0,1.0
1629793510.96875,0,0,-6.137121481645294,0.0,1.0
1629793511.4375,0,0,4.307326864405692,0.0,1.0
1629793511.90625,0,0,14.085289188850465,0.0,1.0
1629793512.375,0,0,-1.2007315996778636,0.0,1.0
1629793512.84375,0,0,53.43416630682823,0.0,1.0
1629793513.3125,0,0,10.066344410963755,0.0,1.0
1629793513.78125,0,0,47.8670932945104,0.0,1.0
1629793514.25,0,0,28.250931809099264,0.0,1.0
1629793514.71875,0,0,2.056254556785247,0.0,1.0
1629793515.1875,0,0,70.4404477811471,0.0,1.0
1629793515.65625,0,0,-13.272406942416804,0.0,1.0
1629793516.125,0,0,35.90022743723113,0.0,1.0
1629793516.59375,0,0,0.0,0.0,1.0
1629793517.0625,0,0,0.0,0.0,1.0
1629793517.53125,0,0,-2.0497261749320512,0.0,1.0
1629793518.0,0,0,123.52483045469899,0.0,1.0
1629793518.46875,0,0,48.90512035474456,0.0,1.0
1629793518.9375,0,0,0.0,0.0,1.0
1629793519.40625,0,0,13.405836856354188,0.0,1.0
1629793519.875,0,0,0.0,0.0,1.0
1629793520.34375,0,0,23.14151374823854,0.0,1.0
1629793520.8125,0,0,9.724496569034615,0.0,1.0
1629793521.28125,0,0,13.644968881105482,0.0,1.0
1629793521.75,0,0,0.0,0.0,1.0
1629793522.21875,0,0,17.766699535863346,0.0,1.0
1629793522.6875,0,0,0.0,0.0,1.0
1629793523.15625,0,0,38.02800209410962,0.0,1.0
1629793523.625,0,0,22.05435005305776,0.0,1.0
1629793524.09375,0,0,46.473568515382794,0.0,1.0
1629793524.5625,0,0,27.38075906532512,0.0,1.0
1629793525.03125,0,0,36.11954255897224,0.0,1.0
1629793525.5,0,0,9.830227672520381,0.0,1.0
1629793525.96875,0,0,0.0,0.0,1.0
1629793526.4375,0,0,29.264046112377844,0.0,1.0
1629793526.90625,0,0,0.0,0.0,1.0
1629793527.375,0,0,10.484093588579247,0.0,1.0
1629793527.84375,0,0,0.0,0.0,1.0
1629793528.3125,0,0,14.542160695509736,0.0,1.0
1629793528.78125,0,0,30.91931401809596,0.0,1.0
1629793529.25,0,0,0.0,0.0,1.0
1629793529.71875,0,0,79.99228218539423,0.0,1.0
1629793530.1875,0,0,0.0,0.0,1.0
1629793530.65625,0,0,37.5936014721231,0.0,1.0
1629793531.125,0,0,0.0,0.0,1.0
1629793531.59375,0,0,4.16743438384137,0.0,1.0
1629793532.0625,0,0,70.62049594456933,0.0,1.0
1629793532.53125,0,0,2.928927936266636,0.0,1.0
1629793533.0,0,0,0.0,0.0,1.0
1629793533.46875,0,0,0.0,0.0,1.0
1629793533.9375,0,0,30.84466854144173,0.0,1.0
1629793534.40625,0,0,-17.418959091574898,0.0,1.0
1629793534.875,0,0,53.07097784515949,0.0,1.0
1629793535.34375,0,0,0.0,0.0,1.0
1629793535.8125,0,0,0.0,0.0,1.0
1629793536.28125,0,0,21.457366391655395,0.0,1.0
1629793536.75,0,0,-8.265153316290576,0.0,1.0
1629793537.21875,0,0,66.0694861175362,0.0,1.0
1629793537.6875,0,0,0.0,0.0,1.0
1629793538.15625,0,0,9.069853535420279,0.0,1.0
1629793538.625,0,0,0.0,0.0,1.0
1629793539.09375,0,0,25.089441088695647,0.0,1.0
1629793539.5625,0,0,0.0,0.0,1.0
1629793540.03125,0,0,0.0,0.0,1.0
1629793540.5,0,0,0.0,0.0,1.0
1629793540.96875,0,0,0.0,0.0,1.0
1629793541.4375,0,0,0.0,0.0,1.0
1629793541.90625,0,0,0.0,0.0,1.0
1629793542.375,0,0,19.52445138854079,0.0,1.0
1629793542.84375,0,0,33.296284532373335,0.0,1.0
1629793543.3125,0,0,0.0,0.0,1.0
1629793543.78125,0,0,0.0,0.0,1.0
1629793544.25,0,0,18.702940585687497,0.0,1.0
1629793544.71875,0,0,4.841095049851739,0.0,1.0
1629793545.1875,0,0,17.06129811556739,0.0,1.0
1629793545.65625,0,0,0.0,0.0,1.0
1629793546.125,0,0,12.227185688922324,0.0,1.0
1629793546.59375,0,0,9.388186049623872,0.0,1.0
1629793547.0625,0,0,12.48204460293451,0.0,1.0
1629793547.53125,0,0,0.0,0.0,1.0
1629793548.0,0,0,10.190627198480572,0.0,1.0
1629793548.46875,0,0,14.887323436726023,0.0,1.0
1629793548.9375,0,0,10.681659247880283,0.0,1.0
1629793549.40625,0,0,0.0,0.0,1.0
1629793549.875,0,0,0.0,0.0,1.0
1629793550.34375,0,0,11.472227340630283,0.0,1.0
1629793550.8125,0,0,11.449178068173406,0.0,1.0
1629793551.28125,0,0,0.0,0.0,1.0
1629793551.75,0,0,0.0,0.0,1.0
1629793552.21875,0,0,0.0,0.0,1.0
1629793552.6875,0,0,8.093233149632706,0.0,1.0
1629793553.15625,0,0,2.2931736192498495,0.0,1.0
1629793553.625,0,0,0.0,0.0,1.0
1629793554.09375,0,0,10.162896108902082,0.0,1.0
1629793554.5625,0,0,0.9015277640830975,0.0,1.0
1629793555.03125,0,0,7.354800114220188,0.0,1.0
1629793555.5,0,0,0.0,0.0,1.0
1629793555.96875,0,0,8.722564930309419,0.0,1.0
1629793556.4375,0,0,6.161928075396899,0.0,1.0
1629793556.90625,0,0,10.827250124574292,0.0,1.0
1629793557.375,0,0,0.0,0.0,1.0
1629793557.84375,0,0,13.859985550861468,0.0,1.0
1629793558.3125,0,0,0.0,0.0,1.0
1629793558.78125,0,0,12.114531896874297,0.0,1.0
1629793559.25,0,0,0.0,0.0,1.0
1629793559.71875,0,0,11.811701272979052,0.0,1.0
1629793560.1875,0,0,0.0,0.0,1.0
1629793560.65625,0,0,10.982796480629997,0.0,1.0
1629793561.125,0,0,0.0,0.0,1.0
1629793561.59375,0,0,7.1752411236939535,0.0,1.0
1629793562.0625,0,0,-1.6482411982918352,0.0,1.0
1629793562.53125,0,0,8.061450641061414,0.0,1.0
1629793563.0,0,0,0.0,0.0,1.0
1629793563.46875,0,0,10.818724796321403,0.0,1.0
1629793563.9375,0,0,0.0,0.0,1.0
1629793564.40625,0,0,0.0,0.0,1.0
1629793564.875,0,0,8.362610877020959,0.0,1.0
1629793565.34375,0,0,0.0,0.0,1.0
1629793565.8125,0,0,18.724668621401236,0.0,1.0
1629793566.28125,0,0,0.0,0.0,1.0
1629793566.75,0,0,14.700149094473236,0.0,1.0
1629793567.21875,0,0,0.0,0.0,1.0
1629793567.6875,0,0,22.132782019769373,0.0,1.0
1629793568.15625,0,0,0.0,0.0,1.0
1629793568.625,0,0,16.4411092799306,0.0,1.0
1629793569.09375,0,0,0.0,0.0,1.0
1629793569.5625,0,0,20.592925818447952,0.0,1.0
1629793570.03125,0,0,0.0,0.0,1.0
1629793570.5,0,0,15.680451195378597,0.0,1.0
1629793570.96875,0,0,17.75545422240177,0.0,1.0
1629793571.4375,0,0,17.208397597979413,0.0,1.0
1629793571.90625,0,0,0.0,0.0,1.0
1629793572.375,0,0,13.635898229235194,0.0,1.0
1629793572.84375,0,0,23.948664347364705,0.0,1.0
1629793573.3125,0,0,2.359183030281264,0.0,1.0
1629793573.78125,0,0,0.0,0.0,1.0
1629793574.25,0,0,16.305857985755047,0.0,1.0
1629793574.71875,0,0,0.0,0.0,1.0
1629793575.1875,0,0,0.0,0.0,1.0
1629793575.65625,0,0,14.277559065662013,0.0,1.0
1629793576.125,0,0,11.485595341843565,0.0,1.0
1629793576.59375,0,0,11.452014951584731,0.0,1.0
1629793577.0625,0,0,0.0,0.0,1.0
1629793577.53125,0,0,0.0,0.0,1.0
1629793578.0,0,0,16.63428162776022,0.0,1.0
1629793578.46875,0,0,4.981746722772672,0.0,1.0
1629793578.9375,0,0,6.411342855894226,0.0,1.0
1629793579.40625,0,0,0.0,0.0,1.0
1629793579.875,0,0,16.310030502118483,0.0,1.0
1629793580.34375,0,0,-5.348388859383209,0.0,1.0
1629793580.8125,0,0,-3.4786480213138815,0.0,1.0
1629793581.28125,0,0,0.0,0.0,1.0
1629793581.75,0,0,63.29608497643965,0.0,1.0
1629793582.21875,0,0,0.0,0.0,1.0
1629793582.6875,0,0,27.74733740978236,0.0,1.0
1629793583.15625,0,0,161.62710991460955,0.0,1.0
1629793583.625,0,0,34.44630842969033,0.0,1.0
1629793584.09375,0,0,34.217081503029654,0.0,1.0
1629793584.5625,0,0,0.0,0.0,1.0
1629793585.03125,0,0,16.75796306566437,0.0,1.0
1629793585.5,0,0,-15.805238700062649,0.0,1.0
1629793585.96875,0,0,22.131153907284837,0.0,1.0
1629793586.4375,0,0,0.0,0.0,1.0
1629793586.90625,0,0,10.39633936409867,0.0,1.0
1629793587.375,0,0,0.0,0.0,1.0
1629793587.84375,0,0,8.795865890924505,0.0,1.0
1629793588.3125,0,0,8.974164370747477,0.0,1.0
1629793588.78125,0,0,0.0,0.0,1.0
1629793589.25,0,0,7.873900370279191,0.0,1.0
1629793589.71875,0,0,0.0,0.0,1.0
1629793590.1875,0,0,0.0,0.0,1.0
1629793590.65625,0,0,0.0,0.0,1.0
1629793591.125,0,0,6.1325299624379275,0.0,1.0
1629793591.59375,0,0,0.0,0.0,1.0
1629793592.0625,0,0,8.347027664580073,0.0,1.0
1629793592.53125,0,0,0.0,0.0,1.0
1629793593.0,0,0,5.67446120284204,0.0,1.0
1629793593.46875,0,0,0.0,0.0,1.0
1629793593.9375,0,0,17.35400332271799,0.0,1.0
1629793594.40625,0,0,8.449658566835465,0.0,1.0
1629793594.875,0,0,0.0,0.0,1.0
1629793595.34375,0,0,11.043762835100956,0.0,1.0
1629793595.8125,0,0,0.0,0.0,1.0
1629793596.28125,0,0,7.666507066649874,0.0,1.0
1629793596.75,0,0,0.0,0.0,1.0
1629793597.21875,0,0,0.0,0.0,1.0
1629793597.6875,0,0,18.781389614463233,0.0,1.0
1629793598.15625,0,0,0.0,0.0,1.0
1629793598.625,0,0,17.01580314772884,0.0,1.0
1629793599.09375,0,0,0.0,0.0,1.0
1629793599.5625,0,0,12.606369601415992,0.0,1.0
1629793600.03125,0,0,0.0,0.0,1.0
1629793600.5,0,0,12.524165747068947,0.0,1.0
1629793600.96875,0,0,0.0,0.0,1.0
1629793601.4375,0,0,13.969429833892374,0.0,1.0
1629793601.90625,0,0,0.0,0.0,1.0
1629793602.375,0,0,14.137804211457178,0.0,1.0
1629793602.84375,0,0,0.0,0.0,1.0
1629793603.3125,0,0,18.099284928569553,0.0,1.0
1629793603.78125,0,0,0.0,0.0,1.0
1629793604.25,0,0,14.567666739106444,0.0,1.0
1629793604.71875,0,0,0.0,0.0,1.0
1629793605.1875,0,0,0.0,0.0,1.0
1629793605.65625,0,0,6.543876468261629,0.0,1.0
1629793606.125,0,0,10.483191320770485,0.0,1.0
1629793606.59375,0,0,32.33319224860374,0.0,1.0
1629793607.0625,0,0,0.0,0.0,1.0
1629793607.53125,0,0,8.832508210637918,0.0,1.0
1629793608.0,0,0,18.069828334352596,0.0,1.0
1629793608.46875,0,0,0.0,0.0,1.0
1629793608.9375,0,0,20.729863356830506,0.0,1.0
1629793609.40625,0,0,17.969113110458736,0.0,1.0
1629793609.875,0,0,16.56342688522016,0.0,1.0
1629793610.34375,0,0,0.0,0.0,1.0
1629793610.8125,0,0,16.987224387501154,0.0,1.0
1629793611.28125,0,0,0.0,0.0,1.0
1629793611.75,0,0,19.32871435698895,0.0,1.0
1629793612.21875,0,0,0.0,0.0,1.0
1629793612.6875,0,0,13.739293815125162,0.0,1.0
1629793613.15625,0,0,0.0,0.0,1.0
1629793613.625,0,0,15.478454614000718,0.0,1.0
1629793614.09375,0,0,0.0,0.0,1.0
1629793614.5625,0,0,20.20223911056458,0.0,1.0
1629793615.03125,0,0,0.0,0.0,1.0
1629793615.5,0,0,24.72196421631564,0.0,1.0
1629793615.96875,0,0,0.0,0.0,1.0
1629793616.4375,0,0,12.687316000669442,0.0,1.0
1629793616.90625,0,0,0.0,0.0,1.0
1629793617.375,0,0,30.239599127385926,0.0,1.0
1629793617.84375,0,0,0.0,0.0,1.0
1629793618.3125,0,0,14.669445306048434,0.0,1.0
1629793618.78125,0,0,0.0,0.0,1.0
1629793619.25,0,0,24.093169624725565,0.0,1.0
1629793619.71875,0,0,0.0,0.0,1.0
1629793620.1875,0,0,12.841794678028636,0.0,1.0
1629793620.65625,0,0,0.0,0.0,1.0
1629793621.125,0,0,19.478996872591118,0.0,1.0
1629793621.59375,0,0,0.0,0.0,1.0
1629793622.0625,0,0,14.718239322124868,0.0,1.0
1629793622.53125,0,0,0.0,0.0,1.0
1629793623.0,0,0,31.649562070548583,0.0,1.0
1629793623.46875,0,0,0.0,0.0,1.0
1629793623.9375,0,0,18.987110692839373,0.0,1.0
1629793624.40625,0,0,0.0,0.0,1.0
1629793624.875,0,0,26.677183355527276,0.0,1.0
1629793625.34375,0,0,0.0,0.0,1.0
1629793625.8125,0,0,15.883369395721019,0.0,1.0
1629793626.28125,0,0,0.0,0.0,1.0
1629793626.75,0,0,0.0,0.0,1.0
1629793627.21875,0,0,0.0,0.0,1.0
1629793627.6875,0,0,15.000745980745712,0.0,1.0
1629793628.15625,0,0,0.0,0.0,1.0
1629793628.625,0,0,0.0,0.0,1.0
1629793629.09375,0,0,24.229036137204613,0.0,1.0
1629793629.5625,0,0,0.0,0.0,1.0
1629793630.03125,0,0,0.0,0.0,1.0
1629793630.5,0,0,16.63941262667645,0.0,1.0
1629793630.96875,0,0,0.0,0.0,1.0
1629793631.4375,0,0,12.365707105703791,0.0,1.0
1629793631.90625,0,0,0.0,0.0,1.0
1629793632.375,0,0,46.39317992766554,0.0,1.0
1629793632.84375,0,0,-19.673676068527893,0.0,1.0
1629793633.3125,0,0,10.886402217946134,0.0,1.0
1629793633.78125,0,0,0.0,0.0,1.0
1629793634.25,0,0,15.797309625959606,0.0,1.0
1629793634.71875,0,0,28.1105492430028,0.0,1.0
1629793635.1875,0,0,0.0,0.0,1.0
1629793635.65625,0,0,0.0,0.0,1.0
1629793636.125,0,0,19.688210701612284,0.0,1.0
1629793636.59375,0,0,0.0,0.0,1.0
1629793637.0625,0,0,49.54729280120001,0.0,1.0
1629793637.53125,0,0,13.951117161444937,0.0,1.0
1629793638.0,0,0,11.211940755751728,0.0,1.0
1629793638.46875,0,0,0.0,0.0,1.0
1629793638.9375,0,0,7.917186361088369,0.0,1.0
1629793639.40625,0,0,0.0,0.0,1.0
1629793639.875,0,0,11.831664965380929,0.0,1.0
1629793640.34375,0,0,0.0,0.0,1.0
1629793640.8125,0,0,5.529937211525557,0.0,1.0
1629793641.28125,0,0,3.447072488841931,0.0,1.0
1629793641.75,0,0,13.749741556166322,0.0,1.0
1629793642.21875,0,0,0.0,0.0,1.0
1629793642.6875,0,0,54.82561408045928,0.0,1.0
1629793643.15625,0,0,19.200000881219214,0.0,1.0
1629793643.625,0,0,0.0,0.0,1.0
1629793644.09375,0,0,0.0,0.0,1.0
1629793644.5625,0,0,0.0,0.0,1.0
1629793645.03125,0,0,11.283184360314014,0.0,1.0
1629793645.5,0,0,0.0,0.0,1.0
1629793645.96875,0,0,14.09646497081122,0.0,1.0
1629793646.4375,0,0,0.0,0.0,1.0
1629793646.90625,0,0,9.775708817184674,0.0,1.0
1629793647.375,0,0,0.0,0.0,1.0
1629793647.84375,0,0,27.285418955074952,0.0,1.0
1629793648.3125,0,0,0.0,0.0,1.0
1629793648.78125,0,0,14.133854875390842,0.0,1.0
1629793649.25,0,0,0.0,0.0,1.0
1629793649.71875,0,0,26.40835993181072,0.0,1.0
1629793650.1875,0,0,0.0,0.0,1.0
1629793650.65625,0,0,11.776459687892208,0.0,1.0
1629793651.125,0,0,0.0,0.0,1.0
1629793651.59375,0,0,25.134010709841547,0.0,1.0
1629793652.0625,0,0,-9.156101314949067,0.0,1.0
1629793652.53125,0,0,15.998336022456314,0.0,1.0
1629793653.0,0,0,0.0,0.0,1.0
1629793653.46875,0,0,41.11243480995775,0.0,1.0
1629793653.9375,0,0,-24.75943616069413,0.0,1.0
1629793654.40625,0,0,28.2226186118264,0.0,1.0
1629793654.875,0,0,-1.9412147531588484,0.0,1.0
1629793655.34375,0,0,0.0,0.0,1.0
1629793655.8125,0,0,10.973709312340562,0.0,1.0
1629793656.28125,0,0,0.0,0.0,1.0
1629793656.75,0,0,14.666763405447215,0.0,1.0
1629793657.21875,0,0,0.0,0.0,1.0
1629793657.6875,0,0,10.885476538532295,0.0,1.0
1629793658.15625,0,0,0.0,0.0,1.0
1629793658.625,0,0,18.717562666515516,0.0,1.0
1629793659.09375,0,0,0.0,0.0,1.0
1629793659.5625,0,0,19.518572760987297,0.0,1.0
1629793660.03125,0,0,0.0,0.0,1.0
1629793660.5,0,0,0.0,0.0,1.0
1629793660.96875,0,0,24.882783416659837,0.0,1.0
1629793661.4375,0,0,0.0,0.0,1.0
1629793661.90625,0,0,20.779349532267545,0.0,1.0
1629793662.375,0,0,0.0,0.0,1.0
1629793662.84375,0,0,24.038023961787786,0.0,1.0
1629793663.3125,0,0,0.0,0.0,1.0
1629793663.78125,0,0,18.218738170290013,0.0,1.0
1629793664.25,0,0,0.0,0.0,1.0
1629793664.71875,0,0,28.29357793131769,0.0,1.0
1629793665.1875,0,0,0.0,0.0,1.0
1629793665.65625,0,0,17.482229191762958,0.0,1.0
1629793666.125,0,0,0.0,0.0,1.0
1629793666.59375,0,0,23.598076652341287,0.0,1.0
1629793667.0625,0,0,0.0,0.0,1.0
1629793667.53125,0,0,15.764178524039103,0.0,1.0
1629793668.0,0,0,0.0,0.0,1.0
1629793668.46875,0,0,24.86400240623886,0.0,1.0
1629793668.9375,0,0,0.0,0.0,1.0
1629793669.40625,0,0,19.16117708468256,0.0,1.0
1629793669.875,0,0,0.0,0.0,1.0
1629793670.34375,0,0,0.0,0.0,1.0
1629793670.8125,0,0,18.395377482210726,0.0,1.0
1629793671.28125,0,0,0.0,0.0,1.0
1629793671.75,0,0,11.987757387570836,0.0,1.0
1629793672.21875,0,0,0.0,0.0,1.0
1629793672.6875,0,0,21.203556894072282,0.0,1.0
1629793673.15625,0,0,0.0,0.0,1.0
1629793673.625,0,0,0.0,0.0,1.0
1629793674.09375,0,0,10.867582700064903,0.0,1.0
1629793674.5625,0,0,13.869056367978361,0.0,1.0
1629793675.03125,0,0,0.0,0.0,1.0
1629793675.5,0,0,0.0,0.0,1.0
1629793675.96875,0,0,11.017417063810484,0.0,1.0
1629793676.4375,0,0,0.0,0.0,1.0
1629793676.90625,0,0,11.438848228190212,0.0,1.0
1629793677.375,0,0,0.0,0.0,1.0
1629793677.84375,0,0,7.4638833542938805,0.0,1.0
1629793678.3125,0,0,27.23889568018051,0.0,1.0
1629793678.78125,0,0,0.0,0.0,1.0
1629793679.25,0,0,-14.073294640102263,0.0,1.0
1629793679.71875,0,0,26.32306751794631,0.0,1.0
1629793680.1875,0,0,0.0,0.0,1.0
1629793680.65625,0,0,12.045554393465013,0.0,1.0
1629793681.125,0,0,0.0,0.0,1.0
1629793681.59375,0,0,19.028917159411765,0.0,1.0
1629793682.0625,0,0,0.0,0.0,1.0
1629793682.53125,0,0,15.282140294620195,0.0,1.0
1629793683.0,0,0,0.0,0.0,1.0
1629793683.46875,0,0,17.377365452392596,0.0,1.0
1629793683.9375,0,0,0.0,0.0,1.0
1629793684.40625,0,0,0.0,0.0,1.0
1629793684.875,0,0,13.002823377368218,0.0,1.0
1629793685.34375,0,0,0.0,0.0,1.0
1629793685.8125,0,0,21.354423914581503,0.0,1.0
1629793686.28125,0,0,0.0,0.0,1.0
1629793686.75,0,0,17.976720820187936,0.0,1.0
1629793687.21875,0,0,0.0,0.0,1.0
1629793687.6875,0,0,14.522574941162917,0.0,1.0
1629793688.15625,0,0,0.0,0.0,1.0
1629793688.625,0,0,10.803146008582942,0.0,1.0
1629793689.09375,0,0,0.0,0.0,1.0
1629793689.5625,0,0,24.212721308521612,0.0,1.0
1629793690.03125,0,0,0.0,0.0,1.0
1629793690.5,0,0,11.20330949767447,0.0,1.0
1629793690.96875,0,0,0.0,0.0,1.0
1629793691.4375,0,0,0.0,0.0,1.0
1629793691.90625,0,0,0.0,0.0,1.0
1629793692.375,0,0,0.0,0.0,1.0
1629793692.84375,0,0,12.645477068035166,0.0,1.0
1629793693.3125,0,0,14.534266485417987,0.0,1.0
1629793693.78125,0,0,0.0,0.0,1.0
1629793694.25,0,0,0.0,0.0,1.0
1629793694.71875,0,0,6.902636476075687,0.0,1.0
1629793695.1875,0,0,0.0,0.0,1.0
1629793695.65625,0,0,14.471935208155742,0.0,1.0
1629793696.125,0,0,3.033473475800801,0.0,1.0
1629793696.59375,0,0,29.976362625404036,0.0,1.0
1629793697.0625,0,0,15.659605387595308,0.0,1.0
1629793697.53125,0,0,37.397369074399954,0.0,1.0
1629793698.0,0,0,60.21947730748227,0.0,1.0
1629793698.46875,0,0,0.0,0.0,1.0
1629793698.9375,0,0,93.13510948207227,0.0,1.0
1629793699.40625,0,0,0.0,0.0,1.0
1629793699.875,0,0,0.0,0.0,1.0
1629793700.34375,0,0,2.4674715118969455,0.0,1.0
1629793700.8125,0,0,0.0,0.0,1.0
1629793701.28125,0,0,6.1626429567580265,0.0,1.0
1629793701.75,0,0,6.863117762388674,0.0,1.0
1629793702.21875,0,0,0.0,0.0,1.0
1629793702.6875,0,0,16.757224811863672,0.0,1.0
1629793703.15625,0,0,0.0,0.0,1.0
1629793703.625,0,0,5.4987309566406575,0.0,1.0
1629793704.09375,0,0,0.0,0.0,1.0
1629793704.5625,0,0,12.81005285691787,0.0,1.0
1629793705.03125,0,0,0.0,0.0,1.0
1629793705.5,0,0,17.668536844506757,0.0,1.0
1629793705.96875,0,0,0.0,0.0,1.0
1629793706.4375,0,0,11.69204390217469,0.0,1.0
1629793706.90625,0,0,9.811485415958378,0.0,1.0
1629793707.375,0,0,0.0,0.0,1.0
1629793707.84375,0,0,19.283158867418248,0.0,1.0
1629793708.3125,0,0,0.0,0.0,1.0
1629793708.78125,0,0,17.566846109868155,0.0,1.0
1629793709.25,0,0,0.0,0.0,1.0
1629793709.71875,0,0,11.105391015955746,0.0,1.0
1629793710.1875,0,0,0.0,0.0,1.0
1629793710.65625,0,0,0.0,0.0,1.0
1629793711.125,0,0,10.434415994760945,0.0,1.0
1629793711.59375,0,0,0.0,0.0,1.0
1629793712.0625,0,0,13.423882135588878,0.0,1.0
1629793712.53125,0,0,-0.27698932607050686,0.0,1.0
1629793713.0,0,0,13.357646985695485,0.0,1.0
1629793713.46875,0,0,0.0,0.0,1.0
1629793713.9375,0,0,13.038675963344971,0.0,1.0
1629793714.40625,0,0,14.41376264934068,0.0,1.0
1629793714.875,0,0,0.0,0.0,1.0
1629793715.34375,0,0,15.293599637932374,0.0,1.0
1629793715.8125,0,0,0.0,0.0,1.0
1629793716.28125,0,0,16.826428020153923,0.0,1.0
1629793716.75,0,0,0.0,0.0,1.0
1629793717.21875,0,0,21.111504805807716,0.0,1.0
1629793717.6875,0,0,0.0,0.0,1.0
1629793718.15625,0,0,26.608870223438213,0.0,1.0
1629793718.625,0,0,0.0,0.0,1.0
1629793719.09375,0,0,25.144577451944382,0.0,1.0
1629793719.5625,0,0,0.0,0.0,1.0
1629793720.03125,0,0,0.0,0.0,1.0
1629793720.5,0,0,29.486798872904718,0.0,1.0
1629793720.96875,0,0,0.0,0.0,1.0
1629793721.4375,0,0,0.0,0.0,1.0
1629793721.90625,0,0,0.0,0.0,1.0
1629793722.375,0,0,35.703489857156136,0.0,1.0
1629793722.84375,0,0,0.0,0.0,1.0
1629793723.3125,0,0,31.570310375955174,0.0,1.0
1629793723.78125,0,0,0.0,0.0,1.0
1629793724.25,0,0,30.70912476086141,0.0,1.0
1629793724.71875,0,0,0.0,0.0,1.0
1629793725.1875,0,0,0.0,0.0,1.0
1629793725.65625,0,0,32.131687442767856,0.0,1.0
1629793726.125,0,0,0.0,0.0,1.0
1629793726.59375,0,0,36.14044673648593,0.0,1.0
1629793727.0625,0,0,0.0,0.0,1.0
1629793727.53125,0,0,32.584232656504334,0.0,1.0
1629793728.0,0,0,23.939164190566835,0.0,1.0
1629793728.46875,0,0,0.0,0.0,1.0
1629793728.9375,0,0,38.78138827576938,0.0,1.0
1629793729.40625,0,0,0.0,0.0,1.0
1629793729.875,0,0,43.63901320477743,0.0,1.0
1629793730.34375,0,0,0.0,0.0,1.0
1629793730.8125,0,0,40.57407796172074,0.0,1.0
1629793731.28125,0,0,0.0,0.0,1.0
1629793731.75,0,0,0.0,0.0,1.0
1629793732.21875,0,0,34.735185948395745,0.0,1.0
1629793732.6875,0,0,0.0,0.0,1.0
1629793733.15625,0,0,60.37181396443966,0.0,1.0
1629793733.625,0,0,0.0,0.0,1.0
1629793734.09375,0,0,25.147472151453705,0.0,1.0
1629793734.5625,0,0,155.26315717012372,0.0,1.0
1629793735.03125,0,0,0.0,0.0,1.0
1629793735.5,0,0,13.670039648040662,0.0,1.0
1629793735.96875,0,0,49.9595840268032,0.0,1.0
1629793736.4375,0,0,0.0,0.0,1.0
1629793736.90625,0,0,0.0,0.0,1.0
1629793737.375,0,0,0.0,0.0,1.0
1629793737.84375,0,0,0.0,0.0,1.0
1629793738.3125,0,0,29.610807776733246,0.0,1.0
1629793738.78125,0,0,0.0,0.0,1.0
1629793739.25,0,0,25.036826538864823,0.0,1.0
1629793739.71875,0,0,0.0,0.0,1.0
1629793740.1875,0,0,21.839247098351898,0.0,1.0
1629793740.65625,0,0,21.51122433120749,0.0,1.0
1629793741.125,0,0,0.0,0.0,1.0
1629793741.59375,0,0,30.981395888195625,0.0,1.0
1629793742.0625,0,0,0.0,0.0,1.0
1629793742.53125,0,0,27.241382882842554,0.0,1.0
1629793743.0,0,0,0.0,0.0,1.0
1629793743.46875,0,0,36.23729112330691,0.0,1.0
1629793743.9375,0,0,0.0,0.0,1.0
1629793744.40625,0,0,33.328492149488625,0.0,1.0
1629793744.875,0,0,0.0,0.0,1.0
1629793745.34375,0,0,0.0,0.0,1.0
1629793745.8125,0,0,34.60007926774396,0.0,1.0
1629793746.28125,0,0,0.0,0.0,1.0
1629793746.75,0,0,48.09181337111565,0.0,1.0
1629793747.21875,0,0,0.0,0.0,1.0
1629793747.6875,0,0,35.888250003958404,0.0,1.0
1629793748.15625,0,0,0.0,0.0,1.0
1629793748.625,0,0,37.092722332461236,0.0,1.0
1629793749.09375,0,0,0.0,0.0,1.0
1629793749.5625,0,0,0.0,0.0,1.0
1629793750.03125,0,0,36.153799833223445,0.0,1.0
1629793750.5,0,0,0.0,0.0,1.0
1629793750.96875,0,0,37.19511684663938,0.0,1.0
1629793751.4375,0,0,0.0,0.0,1.0
1629793751.90625,0,0,31.778940199216304,0.0,1.0
1629793752.375,0,0,0.0,0.0,1.0
1629793752.84375,0,0,0.0,0.0,1.0
1629793753.3125,0,0,30.461317161941295,0.0,1.0
1629793753.78125,0,0,0.0,0.0,1.0
1629793754.25,0,0,34.54393932222096,0.0,1.0
1629793754.71875,0,0,0.0,0.0,1.0
1629793755.1875,0,0,34.704079903455835,0.0,1.0
1629793755.65625,0,0,0.0,0.0,1.0
1629793756.125,0,0,0.0,0.0,1.0
1629793756.59375,0,0,41.291404020452156,0.0,1.0
1629793757.0625,0,0,0.0,0.0,1.0
1629793757.53125,0,0,21.849413389308957,0.0,1.0
1629793758.0,0,0,0.0,0.0,1.0
1629793758.46875,0,0,42.542089102395856,0.0,1.0
1629793758.9375,0,0,0.0,0.0,1.0
1629793759.40625,0,0,36.65650219575816,0.0,1.0
1629793759.875,0,0,0.0,0.0,1.0
1629793760.34375,0,0,38.63258711957224,0.0,1.0
1629793760.8125,0,0,0.0,0.0,1.0
1629793761.28125,0,0,40.693046706584866,0.0,1.0
1629793761.75,0,0,0.0,0.0,1.0
1629793762.21875,0,0,-21.609388817681484,0.0,1.0
1629793762.6875,0,0,74.55003212481022,0.0,1.0
1629793763.15625,0,0,58.196705214535825,0.0,1.0
1629793763.625,0,0,-13.682499085911665,0.0,1.0
1629793764.09375,0,0,0.0,0.0,1.0
1629793764.5625,0,0,41.089474966978905,0.0,1.0
1629793765.03125,0,0,0.0,0.0,1.0
1629793765.5,0,0,18.687456399205566,0.0,1.0
1629793765.96875,0,0,0.0,0.0,1.0
1629793766.4375,0,0,84.22161411093782,0.0,1.0
1629793766.90625,0,0,-16.87722981563345,0.0,1.0
1629793767.375,0,0,41.65210471656335,0.0,1.0
1629793767.84375,0,0,-6.300101659209898,0.0,1.0
1629793768.3125,0,0,31.57496999177397,0.0,1.0
1629793768.78125,0,0,0.0,0.0,1.0
1629793769.25,0,0,17.075331832398366,0.0,1.0
1629793769.71875,0,0,-1.1623497157539382,0.0,1.0
1629793770.1875,0,0,15.968928276368537,0.0,1.0
1629793770.65625,0,0,15.641058557829943,0.0,1.0
1629793771.125,0,0,15.547244003623412,0.0,1.0
1629793771.59375,0,0,0.0,0.0,1.0
1629793772.0625,0,0,0.0,0.0,1.0
1629793772.53125,0,0,16.776306447603204,0.0,1.0
1629793773.0,0,0,0.0,0.0,1.0
1629793773.46875,0,0,0.0,0.0,1.0
1629793773.9375,0,0,0.0,0.0,1.0
1629793774.40625,0,0,23.14855388054764,0.0,1.0
1629793774.875,0,0,0.0,0.0,1.0
1629793775.34375,0,0,19.542435290689827,0.0,1.0
1629793775.8125,0,0,0.0,0.0,1.0
1629793776.28125,0,0,27.468204376237804,0.0,1.0
1629793776.75,0,0,0.0,0.0,1.0
1629793777.21875,0,0,17.96417908886312,0.0,1.0
1629793777.6875,0,0,0.0,0.0,1.0
1629793778.15625,0,0,17.14798516795986,0.0,1.0
1629793778.625,0,0,0.0,0.0,1.0
1629793779.09375,0,0,17.20337118729291,0.0,1.0
1629793779.5625,0,0,24.128898709137275,0.0,1.0
1629793780.03125,0,0,0.0,0.0,1.0
1629793780.5,0,0,33.2353938823407,0.0,1.0
1629793780.96875,0,0,0.0,0.0,1.0
1629793781.4375,0,0,23.59367089175201,0.0,1.0
1629793781.90625,0,0,0.0,0.0,1.0
1629793782.375,0,0,86.88639087306349,0.0,1.0
1629793782.84375,0,0,-29.991015583655717,0.0,1.0
1629793783.3125,0,0,40.05778529986676,0.0,1.0
1629793783.78125,0,0,0.0,0.0,1.0
1629793784.25,0,0,15.271838345600893,0.0,1.0
1629793784.71875,0,0,0.0,0.0,1.0
1629793785.1875,0,0,50.347187432575325,0.0,1.0
1629793785.65625,0,0,0.0,0.0,1.0
1629793786.125,0,0,33.23634555092905,0.0,1.0
1629793786.59375,0,0,0.0,0.0,1.0
1629793787.0625,0,0,14.700245874583171,0.0,1.0
1629793787.53125,0,0,0.0,0.0,1.0
1629793788.0,0,0,20.048472938743238,0.0,1.0
1629793788.46875,0,0,0.0,0.0,1.0
1629793788.9375,0,0,21.773929472499454,0.0,1.0
1629793789.40625,0,0,0.0,0.0,1.0
1629793789.875,0,0,27.037386536723478,0.0,1.0
1629793790.34375,0,0,0.0,0.0,1.0
1629793790.8125,0,0,14.950605218379817,0.0,1.0
1629793791.28125,0,0,10.896808109154271,0.0,1.0
1629793791.75,0,0,0.0,0.0,1.0
1629793792.21875,0,0,17.673131689431457,0.0,1.0
1629793792.6875,0,0,0.0,0.0,1.0
1629793793.15625,0,0,31.858814762203277,0.0,1.0
1629793793.625,0,0,0.0,0.0,1.0
1629793794.09375,0,0,18.026179084259358,0.0,1.0
1629793794.5625,0,0,0.0,0.0,1.0
1629793795.03125,0,0,18.77394241588007,0.0,1.0
1629793795.5,0,0,0.0,0.0,1.0
1629793795.96875,0,0,20.288381667508382,0.0,1.0
1629793796.4375,0,0,0.0,0.0,1.0
1629793796.90625,0,0,0.0,0.0,1.0
1629793797.375,0,0,24.355475642263197,0.0,1.0
1629793797.84375,0,0,0.0,0.0,1.0
1629793798.3125,0,0,42.501471810887125,0.0,1.0
1629793798.78125,0,0,0.0,0.0,1.0
1629793799.25,0,0,14.526542812179365,0.0,1.0
1629793799.71875,0,0,-4.848679910282096,0.0,1.0
1629793800.1875,0,0,26.084853181249784,0.0,1.0
1629793800.65625,0,0,0.0,0.0,1.0
1629793801.125,0,0,0.0,0.0,1.0
1629793801.59375,0,0,41.16684405103545,0.0,1.0
1629793802.0625,0,0,7.166675635956861,0.0,1.0
1629793802.53125,0,0,0.0,0.0,1.0
1629793803.0,0,0,40.146452381382765,0.0,1.0
1629793803.46875,0,0,-1.1524166838245888,0.0,1.0
1629793803.9375,0,0,32.56655636662961,0.0,1.0
1629793804.40625,0,0,0.0,0.0,1.0
1629793804.875,0,0,0.0,0.0,1.0
1629793805.34375,0,0,17.892385115408352,0.0,1.0
1629793805.8125,0,0,0.0,0.0,1.0
1629793806.28125,0,0,12.362346018637476,0.0,1.0
1629793806.75,0,0,0.0,0.0,1.0
1629793807.21875,0,0,14.332141546950295,0.0,1.0
1629793807.6875,0,0,0.0,0.0,1.0
1629793808.15625,0,0,11.903544372844921,0.0,1.0
1629793808.625,0,0,0.0,0.0,1.0
1629793809.09375,0,0,0.0,0.0,1.0
1629793809.5625,0,0,0.0,0.0,1.0
1629793810.03125,0,0,0.0,0.0,1.0
1629793810.5,0,0,14.029786080678065,0.0,1.0
1629793810.96875,0,0,0.0,0.0,1.0
1629793811.4375,0,0,18.648641101970583,0.0,1.0
1629793811.90625,0,0,0.0,0.0,1.0
1629793812.375,0,0,20.77647466485266,0.0,1.0
1629793812.84375,0,0,0.0,0.0,1.0
1629793813.3125,0,0,22.681921845494905,0.0,1.0
1629793813.78125,0,0,0.0,0.0,1.0
1629793814.25,0,0,26.77268537363437,0.0,1.0
1629793814.71875,0,0,0.0,0.0,1.0
1629793815.1875,0,0,0.0,0.0,1.0
1629793815.65625,0,0,0.0,0.0,1.0
1629793816.125,0,0,0.0,0.0,1.0
1629793816.59375,0,0,24.327656922467888,0.0,1.0
1629793817.0625,0,0,0.0,0.0,1.0
1629793817.53125,0,0,21.22804026086199,0.0,1.0
1629793818.0,0,0,0.0,0.0,1.0
1629793818.46875,0,0,23.1004233022439,0.0,1.0
1629793818.9375,0,0,0.0,0.0,1.0
1629793819.40625,0,0,0.0,0.0,1.0
1629793819.875,0,0,21.19008418303501,0.0,1.0
1629793820.34375,0,0,0.0,0.0,1.0
1629793820.8125,0,0,21.966640545399994,0.0,1.0
1629793821.28125,0,0,0.0,0.0,1.0
1629793821.75,0,0,18.79905187870394,0.0,1.0
1629793822.21875,0,0,0.0,0.0,1.0
1629793822.6875,0,0,21.423717998474714,0.0,1.0
1629793823.15625,0,0,0.0,0.0,1.0
1629793823.625,0,0,0.0,0.0,1.0
1629793824.09375,0,0,19.69221898251537,0.0,1.0
1629793824.5625,0,0,0.0,0.0,1.0
1629793825.03125,0,0,19.243890080484302,0.0,1.0
1629793825.5,0,0,-1.8811998403063512,0.0,1.0
1629793825.96875,0,0,14.45059163222647,0.0,1.0
1629793826.4375,0,0,0.0,0.0,1.0
1629793826.90625,0,0,0.0,0.0,1.0
1629793827.375,0,0,17.523012608543002,0.0,1.0
1629793827.84375,0,0,8.085486418708488,0.0,1.0
1629793828.3125,0,0,14.446523074851017,0.0,1.0
1629793828.78125,0,0,0.0,0.0,1.0
1629793829.25,0,0,0.0,0.0,1.0
1629793829.71875,0,0,17.69451286567064,0.0,1.0
1629793830.1875,0,0,0.0,0.0,1.0
1629793830.65625,0,0,17.61686069586802,0.0,1.0
1629793831.125,0,0,0.0,0.0,1.0
1629793831.59375,0,0,25.42226394896737,0.0,1.0
1629793832.0625,0,0,0.0,0.0,1.0
1629793832.53125,0,0,0.0,0.0,1.0
1629793833.0,0,0,16.90459279131982,0.0,1.0
1629793833.46875,0,0,0.0,0.0,1.0
1629793833.9375,0,0,17.07480887863423,0.0,1.0
1629793834.40625,0,0,0.0,0.0,1.0
1629793834.875,0,0,15.7843299240354,0.0,1.0
1629793835.34375,0,0,0.0,0.0,1.0
1629793835.8125,0,0,15.391137678892706,0.0,1.0
1629793836.28125,0,0,0.0,0.0,1.0
1629793836.75,0,0,0.0,0.0,1.0
1629793837.21875,0,0,15.117839705501098,0.0,1.0
1629793837.6875,0,0,0.0,0.0,1.0
1629793838.15625,0,0,22.791347813610994,0.0,1.0
1629793838.625,0,0,-14.14480959905367,0.0,1.0
1629793839.09375,0,0,12.025842645063067,0.0,1.0
1629793839.5625,0,0,0.0,0.0,1.0
1629793840.03125,0,0,18.345125135497845,0.0,1.0
1629793840.5,0,0,0.0,0.0,1.0
1629793840.96875,0,0,14.326735017139283,0.0,1.0
1629793841.4375,0,0,0.0,0.0,1.0
1629793841.90625,0,0,0.0,0.0,1.0
1629793842.375,0,0,0.0,0.0,1.0
1629793842.84375,0,0,12.837056404729411,0.0,1.0
1629793843.3125,0,0,13.433162924796273,0.0,1.0
1629793843.78125,0,0,0.0,0.0,1.0
1629793844.25,0,0,14.266379581165973,0.0,1.0
1629793844.71875,0,0,0.0,0.0,1.0
1629793845.1875,0,0,13.858557963152613,0.0,1.0
1629793845.65625,0,0,0.0,0.0,1.0
1629793846.125,0,0,15.353706407568826,0.0,1.0
1629793846.59375,0,0,0.0,0.0,1.0
1629793847.0625,0,0,0.0,0.0,1.0
1629793847.53125,0,0,0.0,0.0,1.0
1629793848.0,0,0,0.0,0.0,1.0
1629793848.46875,0,0,17.428578459522942,0.0,1.0
1629793848.9375,0,0,0.0,0.0,1.0
1629793849.40625,0,0,27.409231839640018,0.0,1.0
1629793849.875,0,0,59.11116083490849,0.0,1.0
1629793850.34375,0,0,5.952110881139946,0.0,1.0
1629793850.8125,0,0,0.0,0.0,1.0
1629793851.28125,0,0,19.26941345487124,0.0,1.0
1629793851.75,0,0,0.0,0.0,1.0
1629793852.21875,0,0,11.663104457000626,0.0,1.0
1629793852.6875,0,0,17.018196218054364,0.0,1.0
1629793853.15625,0,0,0.0,0.0,1.0
1629793853.625,0,0,10.163317081022965,0.0,1.0
1629793854.09375,0,0,0.0,0.0,1.0
1629793854.5625,0,0,10.776312702538705,0.0,1.0
1629793855.03125,0,0,0.0,0.0,1.0
1629793855.5,0,0,7.071713669608076,0.0,1.0
1629793855.96875,0,0,8.478413620657957,0.0,1.0
1629793856.4375,0,0,8.411642216727461,0.0,1.0
1629793856.90625,0,0,10.632492851911824,0.0,1.0
1629793857.375,0,0,0.0,0.0,1.0
1629793857.84375,0,0,11.3025350633065,0.0,1.0
1629793858.3125,0,0,0.0,0.0,1.0
1629793858.78125,0,0,16.46132468501902,0.0,1.0
1629793859.25,0,0,0.0,0.0,1.0
1629793859.71875,0,0,22.414730269291784,0.0,1.0
1629793860.1875,0,0,0.0,0.0,1.0
1629793860.65625,0,0,0.0,0.0,1.0
1629793861.125,0,0,24.4972641511654,0.0,1.0
1629793861.59375,0,0,0.0,0.0,1.0
1629793862.0625,0,0,28.29176385205705,0.0,1.0
1629793862.53125,0,0,0.0,0.0,1.0
1629793863.0,0,0,20.47541952325935,0.0,1.0
1629793863.46875,0,0,0.0,0.0,1.0
1629793863.9375,0,0,24.125752454511645,0.0,1.0
1629793864.40625,0,0,0.0,0.0,1.0
1629793864.875,0,0,22.442624461204694,0.0,1.0
1629793865.34375,0,0,0.0,0.0,1.0
1629793865.8125,0,0,0.0,0.0,1.0
1629793866.28125,0,0,20.977771143354378,0.0,1.0
1629793866.75,0,0,0.0,0.0,1.0
1629793867.21875,0,0,19.152826406850593,0.0,1.0
1629793867.6875,0,0,0.0,0.0,1.0
1629793868.15625,0,0,16.190997184002185,0.0,1.0
1629793868.625,0,0,0.0,0.0,1.0
1629793869.09375,0,0,18.423456571781365,0.0,1.0
1629793869.5625,0,0,0.0,0.0,1.0
1629793870.03125,0,0,0.0,0.0,1.0
1629793870.5,0,0,16.919198334923536,0.0,1.0
1629793870.96875,0,0,0.0,0.0,1.0
1629793871.4375,0,0,17.320501032037452,0.0,1.0
1629793871.90625,0,0,0.0,0.0,1.0
1629793872.375,0,0,0.0,0.0,1.0
1629793872.84375,0,0,17.130698216899674,0.0,1.0
1629793873.3125,0,0,0.0,0.0,1.0
1629793873.78125,0,0,21.097517170867256,0.0,1.0
1629793874.25,0,0,0.0,0.0,1.0
1629793874.71875,0,0,20.71200766080277,0.0,1.0
1629793875.1875,0,0,0.0,0.0,1.0
1629793875.65625,0,0,21.999933880338524,0.0,1.0
1629793876.125,0,0,0.0,0.0,1.0
1629793876.59375,0,0,0.0,0.0,1.0
1629793877.0625,0,0,18.865933256771427,0.0,1.0
1629793877.53125,0,0,0.0,0.0,1.0
1629793878.0,0,0,23.32731318117904,0.0,1.0
1629793878.46875,0,0,0.0,0.0,1.0
1629793878.9375,0,0,17.461366123859122,0.0,1.0
1629793879.40625,0,0,0.0,0.0,1.0
1629793879.875,0,0,13.659866205988436,0.0,1.0
1629793880.34375,0,0,0.0,0.0,1.0
1629793880.8125,0,0,0.0,0.0,1.0
1629793881.28125,0,0,13.537581575340369,0.0,1.0
1629793881.75,0,0,0.0,0.0,1.0
1629793882.21875,0,0,12.044014679852621,0.0,1.0
1629793882.6875,0,0,0.0,0.0,1.0
1629793883.15625,0,0,13.857053541930853,0.0,1.0
1629793883.625,0,0,0.0,0.0,1.0
1629793884.09375,0,0,10.394921403210756,0.0,1.0
1629793884.5625,0,0,10.724921105915898,0.0,1.0
1629793885.03125,0,0,0.0,0.0,1.0
1629793885.5,0,0,17.03283267050686,0.0,1.0
1629793885.96875,0,0,0.0,0.0,1.0
1629793886.4375,0,0,14.994611905844707,0.0,1.0
1629793886.90625,0,0,0.0,0.0,1.0
1629793887.375,0,0,15.187160512622556,0.0,1.0
1629793887.84375,0,0,0.0,0.0,1.0
1629793888.3125,0,0,15.142021540340114,0.0,1.0
1629793888.78125,0,0,0.0,0.0,1.0
1629793889.25,0,0,16.950414959230155,0.0,1.0
1629793889.71875,0,0,0.0,0.0,1.0
1629793890.1875,0,0,14.871602114944183,0.0,1.0
1629793890.65625,0,0,0.0,0.0,1.0
1629793891.125,0,0,0.0,0.0,1.0
1629793891.59375,0,0,12.132754360908613,0.0,1.0
1629793892.0625,0,0,0.0,0.0,1.0
1629793892.53125,0,0,0.0,0.0,1.0
1629793893.0,0,0,0.0,0.0,1.0
1629793893.46875,0,0,13.85060399975066,0.0,1.0
1629793893.9375,0,0,0.0,0.0,1.0
1629793894.40625,0,0,12.682257016852333,0.0,1.0
1629793894.875,0,0,0.0,0.0,1.0
1629793895.34375,0,0,12.038387879651061,0.0,1.0
1629793895.8125,0,0,0.0,0.0,1.0
1629793896.28125,0,0,12.4986461026476,0.0,1.0
1629793896.75,0,0,0.0,0.0,1.0
1629793897.21875,0,0,12.664154559296787,0.0,1.0
1629793897.6875,0,0,0.0,0.0,1.0
1629793898.15625,0,0,0.0,0.0,1.0
1629793898.625,0,0,0.0,0.0,1.0
1629793899.09375,0,0,12.72824349927134,0.0,1.0
1629793899.5625,0,0,0.0,0.0,1.0
1629793900.03125,0,0,15.171267318652031,0.0,1.0
1629793900.5,0,0,12.562902733169821,0.0,1.0
1629793900.96875,0,0,0.0,0.0,1.0
1629793901.4375,0,0,0.0,0.0,1.0
1629793901.90625,0,0,0.0,0.0,1.0
1629793902.375,0,0,9.262238346270147,0.0,1.0
1629793902.84375,0,0,0.0,0.0,1.0
1629793903.3125,0,0,13.892806955000532,0.0,1.0
1629793903.78125,0,0,0.0,0.0,1.0
1629793904.25,0,0,12.97796014495306,0.0,1.0
1629793904.71875,0,0,0.0,0.0,1.0
1629793905.1875,0,0,13.76155292083975,0.0,1.0
1629793905.65625,0,0,0.0,0.0,1.0
1629793906.125,0,0,14.90598249409107,0.0,1.0
1629793906.59375,0,0,0.0,0.0,1.0
1629793907.0625,0,0,14.940997908624828,0.0,1.0
1629793907.53125,0,0,0.0,0.0,1.0
1629793908.0,0,0,14.618163973451143,0.0,1.0
1629793908.46875,0,0,0.0,0.0,1.0
1629793908.9375,0,0,12.724261175339247,0.0,1.0
1629793909.40625,0,0,0.0,0.0,1.0
1629793909.875,0,0,17.888729640951873,0.0,1.0
1629793910.34375,0,0,0.0,0.0,1.0
1629793910.8125,0,0,14.21179937993576,0.0,1.0
1629793911.28125,0,0,0.0,0.0,1.0
1629793911.75,0,0,15.759856218258369,0.0,1.0
1629793912.21875,0,0,0.0,0.0,1.0
1629793912.6875,0,0,15.464799768289879,0.0,1.0
1629793913.15625,0,0,0.0,0.0,1.0
1629793913.625,0,0,16.157898922263893,0.0,1.0
1629793914.09375,0,0,0.0,0.0,1.0
1629793914.5625,0,0,16.38133180633175,0.0,1.0
1629793915.03125,0,0,0.0,0.0,1.0
1629793915.5,0,0,15.263634831736377,0.0,1.0
1629793915.96875,0,0,0.0,0.0,1.0
1629793916.4375,0,0,0.0,0.0,1.0
1629793916.90625,0,0,0.0,0.0,1.0
1629793917.375,0,0,14.007240669426091,0.0,1.0
1629793917.84375,0,0,0.0,0.0,1.0
1629793918.3125,0,0,0.0,0.0,1.0
1629793918.78125,0,0,21.18537759985236,0.0,1.0
1629793919.25,0,0,3.0772694588766445,0.0,1.0
1629793919.71875,0,0,6.875233722932041,0.0,1.0
1629793920.1875,0,0,9.055192654998946,0.0,1.0
1629793920.65625,0,0,4.950549477843185,0.0,1.0
1629793921.125,0,0,16.72789826940753,0.0,1.0
1629793921.59375,0,0,0.0,0.0,1.0
1629793922.0625,0,0,11.584792518983827,0.0,1.0
1629793922.53125,0,0,15.584629179592188,0.0,1.0
1629793923.0,0,0,0.0,0.0,1.0
1629793923.46875,0,0,0.0,0.0,1.0
1629793923.9375,0,0,9.047124904421054,0.0,1.0
1629793924.40625,0,0,0.0,0.0,1.0
1629793924.875,0,0,9.258291953826305,0.0,1.0
1629793925.34375,0,0,0.0,0.0,1.0
1629793925.8125,0,0,9.760918686559926,0.0,1.0
1629793926.28125,0,0,0.0,0.0,1.0
1629793926.75,0,0,2.776110214223277,0.0,1.0
1629793927.21875,0,0,20.727289083028854,0.0,1.0
1629793927.6875,0,0,10.201615572336468,0.0,1.0
1629793928.15625,0,0,0.1676069671457835,0.0,1.0
1629793928.625,0,0,10.033250626560887,0.0,1.0
1629793929.09375,0,0,12.245394315780844,0.0,1.0
1629793929.5625,0,0,0.0,0.0,1.0
1629793930.03125,0,0,9.84509694769292,0.0,1.0
1629793930.5,0,0,0.0,0.0,1.0
1629793930.96875,0,0,17.994404371883604,0.0,1.0
1629793931.4375,0,0,0.0,0.0,1.0
1629793931.90625,0,0,21.421074503653173,0.0,1.0
1629793932.375,0,0,0.0,0.0,1.0
1629793932.84375,0,0,18.45150764815451,0.0,1.0
1629793933.3125,0,0,0.0,0.0,1.0
1629793933.78125,0,0,32.03763359460794,0.0,1.0
1629793934.25,0,0,0.0,0.0,1.0
1629793934.71875,0,0,0.0,0.0,1.0
1629793935.1875,0,0,50.95877597622284,0.0,1.0
1629793935.65625,0,0,0.0,0.0,1.0
1629793936.125,0,0,15.685632761376313,0.0,1.0
1629793936.59375,0,0,22.090334051753732,0.0,1.0
1629793937.0625,0,0,25.022693524221594,0.0,1.0
1629793937.53125,0,0,0.0,0.0,1.0
1629793938.0,0,0,0.0,0.0,1.0
1629793938.46875,0,0,0.0,0.0,1.0
1629793938.9375,0,0,15.216845368639481,0.0,1.0
1629793939.40625,0,0,0.0,0.0,1.0
1629793939.875,0,0,12.447811194862881,0.0,1.0
1629793940.34375,0,0,0.0,0.0,1.0
1629793940.8125,0,0,20.295153455537267,0.0,1.0
1629793941.28125,0,0,0.0,0.0,1.0
1629793941.75,0,0,15.479514432651342,0.0,1.0
1629793942.21875,0,0,0.0,0.0,1.0
1629793942.6875,0,0,15.005552331821699,0.0,1.0
1629793943.15625,0,0,0.0,0.0,1.0
1629793943.625,0,0,9.000001874076336,0.0,1.0
1629793944.09375,0,0,0.0,0.0,1.0
1629793944.5625,0,0,16.229918321333994,0.0,1.0
1629793945.03125,0,0,16.667779856832674,0.0,1.0
1629793945.5,0,0,0.0,0.0,1.0
1629793945.96875,0,0,51.96682267094258,0.0,1.0
1629793946.4375,0,0,9.677674407612505,0.0,1.0
1629793946.90625,0,0,20.0171979826526,0.0,1.0
1629793947.375,0,0,0.0,0.0,1.0
1629793947.84375,0,0,10.460947696567404,0.0,1.0
1629793948.3125,0,0,0.0,0.0,1.0
1629793948.78125,0,0,16.40476451599374,0.0,1.0
1629793949.25,0,0,0.0,0.0,1.0
1629793949.71875,0,0,0.0,0.0,1.0
1629793950.1875,0,0,0.0,0.0,1.0
1629793950.65625,0,0,27.107061912860097,0.0,1.0
1629793951.125,0,0,5.593862397005714,0.0,1.0
1629793951.59375,0,0,0.0,0.0,1.0
1629793952.0625,0,0,12.262358532582914,0.0,1.0
1629793952.53125,0,0,0.0,0.0,1.0
1629793953.0,0,0,15.760709350804417,0.0,1.0
1629793953.46875,0,0,0.0,0.0,1.0
1629793953.9375,0,0,11.66957229111211,0.0,1.0
1629793954.40625,0,0,0.0,0.0,1.0
1629793954.875,0,0,16.008815956610192,0.0,1.0
1629793955.34375,0,0,0.0,0.0,1.0
1629793955.8125,0,0,11.732209163476035,0.0,1.0
1629793956.28125,0,0,0.0,0.0,1.0
1629793956.75,0,0,-1.2412748091647077,0.0,1.0
1629793957.21875,0,0,8.178204680863265,0.0,1.0
1629793957.6875,0,0,12.322142358157848,0.0,1.0
1629793958.15625,0,0,24.49891889764084,0.0,1.0
1629793958.625,0,0,7.858293618899457,0.0,1.0
1629793959.09375,0,0,0.0,0.0,1.0
1629793959.5625,0,0,0.0,0.0,1.0
1629793960.03125,0,0,30.511005932580918,0.0,1.0
1629793960.5,0,0,0.0,0.0,1.0
1629793960.96875,0,0,29.275352054281257,0.0,1.0
1629793961.4375,0,0,0.0,0.0,1.0
1629793961.90625,0,0,8.97837087656804,0.0,1.0
1629793962.375,0,0,4.191158279841027,0.0,1.0
1629793962.84375,0,0,1.617992144005766,0.0,1.0
1629793963.3125,0,0,0.0,0.0,1.0
1629793963.78125,0,0,-0.34986145524421913,0.0,1.0
1629793964.25,0,0,26.965920987742106,0.0,1.0
1629793964.71875,0,0,0.6886490716601484,0.0,1.0
1629793965.1875,0,0,24.444685487460546,0.0,1.0
1629793965.65625,0,0,2.617950043835848,0.0,1.0
1629793966.125,0,0,6.406847990572462,0.0,1.0
1629793966.59375,0,0,16.332316422384057,0.0,1.0
1629793967.0625,0,0,0.0,0.0,1.0
1629793967.53125,0,0,11.864833955728942,0.0,1.0
1629793968.0,0,0,13.664285572098589,0.0,1.0
1629793968.46875,0,0,0.0,0.0,1.0
1629793968.9375,0,0,7.55354268932378,0.0,1.0
1629793969.40625,0,0,0.0,0.0,1.0
1629793969.875,0,0,12.257568381539954,0.0,1.0
1629793970.34375,0,0,0.0,0.0,1.0
1629793970.8125,0,0,11.561720622596447,0.0,1.0
1629793971.28125,0,0,0.0,0.0,1.0
1629793971.75,0,0,15.975542954583508,0.0,1.0
1629793972.21875,0,0,0.0,0.0,1.0
1629793972.6875,0,0,24.888625716999403,0.0,1.0
1629793973.15625,0,0,0.0,0.0,1.0
1629793973.625,0,0,9.402781505027626,0.0,1.0
1629793974.09375,0,0,0.0,0.0,1.0
1629793974.5625,0,0,12.525717072560527,0.0,1.0
1629793975.03125,0,0,0.0,0.0,1.0
1629793975.5,0,0,0.0,0.0,1.0
1629793975.96875,0,0,39.15766535062496,0.0,1.0
1629793976.4375,0,0,22.21244102344312,0.0,1.0
1629793976.90625,0,0,0.0,0.0,1.0
1629793977.375,0,0,33.76296780105225,0.0,1.0
1629793977.84375,0,0,0.0,0.0,1.0
1629793978.3125,0,0,8.077014561520633,0.0,1.0
1629793978.78125,0,0,0.0,0.0,1.0
1629793979.25,0,0,13.231571594926525,0.0,1.0
1629793979.71875,0,0,0.0,0.0,1.0
1629793980.1875,0,0,9.744100174628256,0.0,1.0
1629793980.65625,0,0,0.0,0.0,1.0
1629793981.125,0,0,0.0,0.0,1.0
1629793981.59375,0,0,0.0,0.0,1.0
1629793982.0625,0,0,0.0,0.0,1.0
1629793982.53125,0,0,15.18553133800699,0.0,1.0
1629793983.0,0,0,0.0,0.0,1.0
1629793983.46875,0,0,11.140740057711724,0.0,1.0
1629793983.9375,0,0,0.0,0.0,1.0
1629793984.40625,0,0,14.516520707828231,0.0,1.0
1629793984.875,0,0,0.0,0.0,1.0
1629793985.34375,0,0,16.635115352870745,0.0,1.0
1629793985.8125,0,0,0.0,0.0,1.0
1629793986.28125,0,0,0.0,0.0,1.0
1629793986.75,0,0,14.145758386851272,0.0,1.0
1629793987.21875,0,0,0.0,0.0,1.0
1629793987.6875,0,0,0.0,0.0,1.0
1629793988.15625,0,0,0.0,0.0,1.0
1629793988.625,0,0,20.97740795692354,0.0,1.0
1629793989.09375,0,0,0.0,0.0,1.0
1629793989.5625,0,0,16.0073408489589,0.0,1.0
1629793990.03125,0,0,0.0,0.0,1.0
1629793990.5,0,0,16.861122448962895,0.0,1.0
1629793990.96875,0,0,0.0,0.0,1.0
1629793991.4375,0,0,0.0,0.0,1.0
1629793991.90625,0,0,13.988249239856103,0.0,1.0
1629793992.375,0,0,0.0,0.0,1.0
1629793992.84375,0,0,12.590048953086038,0.0,1.0
1629793993.3125,0,0,0.0,0.0,1.0
1629793993.78125,0,0,12.087898467708039,0.0,1.0
1629793994.25,0,0,0.0,0.0,1.0
1629793994.71875,0,0,0.0,0.0,1.0
1629793995.1875,0,0,20.795663432223407,0.0,1.0
1629793995.65625,0,0,-6.4358077645217575,0.0,1.0
1629793996.125,0,0,0.0,0.0,1.0
1629793996.59375,0,0,103.34177232538971,0.0,1.0
1629793997.0625,0,0,0.0,0.0,1.0
1629793997.53125,0,0,-7.946396447215181,0.0,1.0
1629793998.0,0,0,24.904686527158027,0.0,1.0
1629793998.46875,0,0,0.0,0.0,1.0
1629793998.9375,0,0,-16.99374689344523,0.0,1.0
1629793999.40625,0,0,50.002196353184125,0.0,1.0
1629793999.875,0,0,24.302288991460465,0.0,1.0
1629794000.34375,0,0,0.0,0.0,1.0
1629794000.8125,0,0,17.26160319068959,0.0,1.0
1629794001.28125,0,0,0.0,0.0,1.0
1629794001.75,0,0,0.0,0.0,1.0
1629794002.21875,0,0,13.981581561046882,0.0,1.0
1629794002.6875,0,0,0.0,0.0,1.0
1629794003.15625,0,0,11.278604161927326,0.0,1.0
1629794003.625,0,0,0.0,0.0,1.0
1629794004.09375,0,0,9.31208986680165,0.0,1.0
1629794004.5625,0,0,0.0,0.0,1.0
1629794005.03125,0,0,10.712725067837015,0.0,1.0
1629794005.5,0,0,3.0141019966992,0.0,1.0
1629794005.96875,0,0,0.0,0.0,1.0
1629794006.4375,0,0,44.59959674781785,0.0,1.0
1629794006.90625,0,0,0.0,0.0,1.0
1629794007.375,0,0,22.340668278590798,0.0,1.0
1629794007.84375,0,0,0.0,0.0,1.0
1629794008.3125,0,0,13.921162442281828,0.0,1.0
1629794008.78125,0,0,0.0,0.0,1.0
1629794009.25,0,0,40.648436420022435,0.0,1.0
1629794009.71875,0,0,0.0,0.0,1.0
1629794010.1875,0,0,11.464668709507613,0.0,1.0
1629794010.65625,0,0,0.0,0.0,1.0
1629794011.125,0,0,27.82268726580754,0.0,1.0
1629794011.59375,0,0,10.104471424670871,0.0,1.0
1629794012.0625,0,0,0.0,0.0,1.0
1629794012.53125,0,0,36.99057509406841,0.0,1.0
1629794013.0,0,0,0.0,0.0,1.0
1629794013.46875,0,0,21.125465736312137,0.0,1.0
1629794013.9375,0,0,11.164209530610458,0.0,1.0
1629794014.40625,0,0,0.0,0.0,1.0
1629794014.875,0,0,0.0,0.0,1.0
1629794015.34375,0,0,0.0,0.0,1.0
1629794015.8125,0,0,10.27657167266027,0.0,1.0
1629794016.28125,0,0,7.579101276727285,0.0,1.0
1629794016.75,0,0,0.0,0.0,1.0
1629794017.21875,0,0,15.01552130116709,0.0,1.0
1629794017.6875,0,0,7.8862410011020865,0.0,1.0
1629794018.15625,0,0,34.6082704164,0.0,1.0
1629794018.625,0,0,0.0,0.0,1.0
1629794019.09375,0,0,-10.308415617870253,0.0,1.0
1629794019.5625,0,0,17.526560376756162,0.0,1.0
1629794020.03125,0,0,18.515705956191983,0.0,1.0
1629794020.5,0,0,-12.435696693968366,0.0,1.0
1629794020.96875,0,0,0.0,0.0,1.0
1629794021.4375,0,0,14.142708098444608,0.0,1.0
1629794021.90625,0,0,4.28729279430258,0.0,1.0
1629794022.375,0,0,3.7675938920247676,0.0,1.0
1629794022.84375,0,0,-2.4116457609792077,0.0,1.0
1629794023.3125,0,0,19.270124261838372,0.0,1.0
1629794023.78125,0,0,0.0,0.0,1.0
1629794024.25,0,0,10.428555942303745,0.0,1.0
1629794024.71875,0,0,14.271923943152986,0.0,1.0
1629794025.1875,0,0,9.005157057939675,0.0,1.0
1629794025.65625,0,0,0.0,0.0,1.0
1629794026.125,0,0,15.530070974659084,0.0,1.0
1629794026.59375,0,0,0.0,0.0,1.0
1629794027.0625,0,0,11.380513778644534,0.0,1.0
1629794027.53125,0,0,0.0,0.0,1.0
1629794028.0,0,0,12.493239110481847,0.0,1.0
1629794028.46875,0,0,0.0,0.0,1.0
1629794028.9375,0,0,9.664567443911602,0.0,1.0
1629794029.40625,0,0,0.0,0.0,1.0
1629794029.875,0,0,12.759353755958685,0.0,1.0
1629794030.34375,0,0,0.0,0.0,1.0
1629794030.8125,0,0,12.910547817690778,0.0,1.0
1629794031.28125,0,0,0.0,0.0,1.0
1629794031.75,0,0,13.149301747239175,0.0,1.0
1629794032.21875,0,0,0.0,0.0,1.0
1629794032.6875,0,0,9.724686335561541,0.0,1.0
1629794033.15625,0,0,0.0,0.0,1.0
1629794033.625,0,0,28.368581932850372,0.0,1.0
1629794034.09375,0,0,-0.20391538524337355,0.0,1.0
1629794034.5625,0,0,11.370579714974024,0.0,1.0
1629794035.03125,0,0,0.0,0.0,1.0
1629794035.5,0,0,13.129143053928638,0.0,1.0
1629794035.96875,0,0,13.274017330855699,0.0,1.0
1629794036.4375,0,0,3.337892285125587,0.0,1.0
1629794036.90625,0,0,0.0,0.0,1.0
1629794037.375,0,0,0.0,0.0,1.0
1629794037.84375,0,0,77.90995656147778,0.0,1.0
1629794038.3125,0,0,-30.04873966326326,0.0,1.0
1629794038.78125,0,0,28.44321238665819,0.0,1.0
1629794039.25,0,0,0.0,0.0,1.0
1629794039.71875,0,0,14.049979905672945,0.0,1.0
1629794040.1875,0,0,0.0,0.0,1.0
1629794040.65625,0,0,10.958363408921452,0.0,1.0
1629794041.125,0,0,0.0,0.0,1.0
1629794041.59375,0,0,11.670265848140195,0.0,1.0
1629794042.0625,0,0,0.0,0.0,1.0
1629794042.53125,0,0,11.636548882801685,0.0,1.0
1629794043.0,0,0,0.0,0.0,1.0
1629794043.46875,0,0,13.589668447374075,0.0,1.0
1629794043.9375,0,0,0.0,0.0,1.0
1629794044.40625,0,0,13.830989104377148,0.0,1.0
1629794044.875,0,0,0.0,0.0,1.0
1629794045.34375,0,0,0.0,0.0,1.0
1629794045.8125,0,0,21.621316526850833,0.0,1.0
1629794046.28125,0,0,0.0,0.0,1.0
1629794046.75,0,0,14.50700034077316,0.0,1.0
1629794047.21875,0,0,0.0,0.0,1.0
1629794047.6875,0,0,5.206050701232935,0.0,1.0
1629794048.15625,0,0,51.84951827420069,0.0,1.0
1629794048.625,0,0,0.0,0.0,1.0
1629794049.09375,0,0,13.218412073007842,0.0,1.0
1629794049.5625,0,0,0.9575502848378157,0.0,1.0
1629794050.03125,0,0,0.0,0.0,1.0
1629794050.5,0,0,11.273774401680791,0.0,1.0
1629794050.96875,0,0,0.0,0.0,1.0
1629794051.4375,0,0,61.99069204022683,0.0,1.0
1629794051.90625,0,0,0.0,0.0,1.0
1629794052.375,0,0,19.904200609266486,0.0,1.0
1629794052.84375,0,0,0.0,0.0,1.0
1629794053.3125,0,0,10.878392910089516,0.0,1.0
1629794053.78125,0,0,0.0,0.0,1.0
1629794054.25,0,0,12.187682389675201,0.0,1.0
1629794054.71875,0,0,-9.621341413675253,0.0,1.0
1629794055.1875,0,0,10.351428030960086,0.0,1.0
1629794055.65625,0,0,0.0,0.0,1.0
1629794056.125,0,0,0.0,0.0,1.0
1629794056.59375,0,0,11.21548119646102,0.0,1.0
1629794057.0625,0,0,0.0,0.0,1.0
1629794057.53125,0,0,13.018064812946303,0.0,1.0
1629794058.0,0,0,0.0,0.0,1.0
1629794058.46875,0,0,15.949427989674396,0.0,1.0
1629794058.9375,0,0,13.168743345491896,0.0,1.0
1629794059.40625,0,0,0.0,0.0,1.0
1629794059.875,0,0,15.209841498687766,0.0,1.0
1629794060.34375,0,0,0.0,0.0,1.0
1629794060.8125,0,0,17.77875604321633,0.0,1.0
1629794061.28125,0,0,0.0,0.0,1.0
1629794061.75,0,0,21.13267788398376,0.0,1.0
1629794062.21875,0,0,0.0,0.0,1.0
1629794062.6875,0,0,22.52770457287589,0.0,1.0
1629794063.15625,0,0,0.0,0.0,1.0
1629794063.625,0,0,0.0,0.0,1.0
1629794064.09375,0,0,23.098921499490935,0.0,1.0
1629794064.5625,0,0,0.0,0.0,1.0
1629794065.03125,0,0,14.160381380703463,0.0,1.0
1629794065.5,0,0,0.0,0.0,1.0
1629794065.96875,0,0,18.3708845672479,0.0,1.0
1629794066.4375,0,0,0.0,0.0,1.0
1629794066.90625,0,0,0.0,0.0,1.0
1629794067.375,0,0,23.840360163498968,0.0,1.0
1629794067.84375,0,0,0.0,0.0,1.0
1629794068.3125,0,0,24.151469393596326,0.0,1.0
1629794068.78125,0,0,3.5995015738079146,0.0,1.0
1629794069.25,0,0,18.690146704908425,0.0,1.0
1629794069.71875,0,0,0.0,0.0,1.0
1629794070.1875,0,0,0.0,0.0,1.0
1629794070.65625,0,0,18.826637166048986,0.0,1.0
1629794071.125,0,0,0.0,0.0,1.0
1629794071.59375,0,0,15.65267371829851,0.0,1.0
1629794072.0625,0,0,0.0,0.0,1.0
1629794072.53125,0,0,17.73245339180167,0.0,1.0
1629794073.0,0,0,0.0,0.0,1.0
1629794073.46875,0,0,0.0,0.0,1.0
1629794073.9375,0,0,17.338724319859217,0.0,1.0
1629794074.40625,0,0,0.0,0.0,1.0
1629794074.875,0,0,18.633211765669387,0.0,1.0
1629794075.34375,0,0,0.0,0.0,1.0
1629794075.8125,0,0,15.660505477204838,0.0,1.0
1629794076.28125,0,0,0.0,0.0,1.0
1629794076.75,0,0,0.0,0.0,1.0
1629794077.21875,0,0,16.983104237124476,0.0,1.0
1629794077.6875,0,0,0.0,0.0,1.0
1629794078.15625,0,0,12.589036592598102,0.0,1.0
1629794078.625,0,0,0.0,0.0,1.0
1629794079.09375,0,0,13.18302832914796,0.0,1.0
1629794079.5625,0,0,0.0,0.0,1.0
1629794080.03125,0,0,0.0,0.0,1.0
1629794080.5,0,0,24.22935118168093,0.0,1.0
1629794080.96875,0,0,-14.970595305375733,0.0,1.0
1629794081.4375,0,0,17.01974081169423,0.0,1.0
1629794081.90625,0,0,0.0,0.0,1.0
1629794082.375,0,0,0.0,0.0,1.0
1629794082.84375,0,0,15.4339654662327,0.0,1.0
1629794083.3125,0,0,0.0,0.0,1.0
1629794083.78125,0,0,16.12622844327732,0.0,1.0
1629794084.25,0,0,3.854550960480362,0.0,1.0
1629794084.71875,0,0,11.758240573345445,0.0,1.0
1629794085.1875,0,0,0.0,0.0,1.0
1629794085.65625,0,0,14.736940037624171,0.0,1.0
1629794086.125,0,0,0.0,0.0,1.0
1629794086.59375,0,0,0.0,0.0,1.0
1629794087.0625,0,0,14.552343021055167,0.0,1.0
1629794087.53125,0,0,0.0,0.0,1.0
1629794088.0,0,0,19.190755044085694,0.0,1.0
1629794088.46875,0,0,0.0,0.0,1.0
1629794088.9375,0,0,0.0,0.0,1.0
1629794089.40625,0,0,18.83920689604206,0.0,1.0
1629794089.875,0,0,0.0,0.0,1.0
1629794090.34375,0,0,21.091737420507734,0.0,1.0
1629794090.8125,0,0,0.0,0.0,1.0
1629794091.28125,0,0,0.0,0.0,1.0
1629794091.75,0,0,15.89537864861478,0.0,1.0
1629794092.21875,0,0,0.0,0.0,1.0
1629794092.6875,0,0,20.527036523518426,0.0,1.0
1629794093.15625,0,0,0.0,0.0,1.0
1629794093.625,0,0,14.63097378907293,0.0,1.0
1629794094.09375,0,0,0.0,0.0,1.0
1629794094.5625,0,0,15.221415186550296,0.0,1.0
1629794095.03125,0,0,0.0,0.0,1.0
1629794095.5,0,0,18.766887494524635,0.0,1.0
1629794095.96875,0,0,5.410826430222032,0.0,1.0
1629794096.4375,0,0,0.0,0.0,1.0
1629794096.90625,0,0,13.261490935601781,0.0,1.0
1629794097.375,0,0,0.0,0.0,1.0
1629794097.84375,0,0,20.702622022878188,0.0,1.0
1629794098.3125,0,0,0.0,0.0,1.0
1629794098.78125,0,0,15.28611548770962,0.0,1.0
1629794099.25,0,0,-10.147403235232511,0.0,1.0
1629794099.71875,0,0,22.669622244262733,0.0,1.0
1629794100.1875,0,0,0.0,0.0,1.0
1629794100.65625,0,0,0.0,0.0,1.0
1629794101.125,0,0,11.733410543243261,0.0,1.0
1629794101.59375,0,0,0.0,0.0,1.0
1629794102.0625,0,0,15.918113807810553,0.0,1.0
1629794102.53125,0,0,0.0,0.0,1.0
1629794103.0,0,0,12.150035984959802,0.0,1.0
1629794103.46875,0,0,0.0,0.0,1.0
1629794103.9375,0,0,7.544436849570076,0.0,1.0
1629794104.40625,0,0,0.0,0.0,1.0
1629794104.875,0,0,72.43537206501193,0.0,1.0
1629794105.34375,0,0,96.44600767905284,0.0,1.0
1629794105.8125,0,0,55.44046049019882,0.0,1.0
1629794106.28125,0,0,0.0,0.0,1.0
1629794106.75,0,0,5.480859584510585,0.0,1.0
1629794107.21875,0,0,23.82663590023429,0.0,1.0
1629794107.6875,0,0,-12.431648174464776,0.0,1.0
1629794108.15625,0,0,2.1364869880528556,0.0,1.0
1629794108.625,0,0,2.852459585446029,0.0,1.0
1629794109.09375,0,0,4.8010541214390905,0.0,1.0
1629794109.5625,0,0,32.26278334116253,0.0,1.0
1629794110.03125,0,0,67.37707152121548,0.0,1.0
1629794110.5,0,0,40.42779022969022,0.0,1.0
1629794110.96875,0,0,0.0,0.0,1.0
1629794111.4375,0,0,25.256756990703895,0.0,1.0
1629794111.90625,0,0,0.0,0.0,1.0
1629794112.375,0,0,14.848910005864035,0.0,1.0
1629794112.84375,0,0,0.0,0.0,1.0
1629794113.3125,0,0,12.546994569233084,0.0,1.0
1629794113.78125,0,0,9.489229014697305,0.0,1.0
1629794114.25,0,0,17.499463294383943,0.0,1.0
1629794114.71875,0,0,6.144784632280635,0.0,1.0
1629794115.1875,0,0,22.258691371091995,0.0,1.0
1629794115.65625,0,0,0.0,0.0,1.0
1629794116.125,0,0,0.0,0.0,1.0
1629794116.59375,0,0,26.78471527452776,0.0,1.0
1629794117.0625,0,0,0.0,0.0,1.0
1629794117.53125,0,0,21.035196544531505,0.0,1.0
1629794118.0,0,0,0.0,0.0,1.0
1629794118.46875,0,0,50.53943603103211,0.0,1.0
1629794118.9375,0,0,0.0,0.0,1.0
1629794119.40625,0,0,20.5584984334108,0.0,1.0
1629794119.875,0,0,0.0,0.0,1.0
1629794120.34375,0,0,0.0,0.0,1.0
1629794120.8125,0,0,36.239650372545135,0.0,1.0
1629794121.28125,0,0,0.0,0.0,1.0
1629794121.75,0,0,20.846087865325934,0.0,1.0
1629794122.21875,0,0,0.0,0.0,1.0
1629794122.6875,0,0,54.6977815367139,0.0,1.0
1629794123.15625,0,0,0.0,0.0,1.0
1629794123.625,0,0,26.81444358362566,0.0,1.0
1629794124.09375,0,0,0.0,0.0,1.0
1629794124.5625,0,0,29.214437109998705,0.0,1.0
1629794125.03125,0,0,17.837093744732844,0.0,1.0
1629794125.5,0,0,0.0,0.0,1.0
1629794125.96875,0,0,16.125002919232656,0.0,1.0
1629794126.4375,0,0,47.54265255907087,0.0,1.0
1629794126.90625,0,0,0.0,0.0,1.0
1629794127.375,0,0,0.0,0.0,1.0
1629794127.84375,0,0,18.19833012843504,0.0,1.0
1629794128.3125,0,0,10.925962904339318,0.0,1.0
1629794128.78125,0,0,37.61285064784616,0.0,1.0
1629794129.25,0,0,-12.143997245530006,0.0,1.0
1629794129.71875,0,0,19.56785971094946,0.0,1.0
1629794130.1875,0,0,0.0,0.0,1.0
1629794130.65625,0,0,6.004821430868544,0.0,1.0
1629794131.125,0,0,39.538268054257365,0.0,1.0
1629794131.59375,0,0,0.0,0.0,1.0
1629794132.0625,0,0,20.06057276289091,0.0,1.0
1629794132.53125,0,0,18.547865393263386,0.0,1.0
1629794133.0,0,0,21.076020424205108,0.0,1.0
1629794133.46875,0,0,0.0,0.0,1.0
1629794133.9375,0,0,0.0,0.0,1.0
1629794134.40625,0,0,51.36882786573881,0.0,1.0
1629794134.875,0,0,0.0,0.0,1.0
1629794135.34375,0,0,26.12901882611736,0.0,1.0
1629794135.8125,0,0,0.0,0.0,1.0
1629794136.28125,0,0,32.04628545087975,0.0,1.0
1629794136.75,0,0,0.0,0.0,1.0
1629794137.21875,0,0,17.230388089898135,0.0,1.0
1629794137.6875,0,0,0.0,0.0,1.0
1629794138.15625,0,0,40.31850824117845,0.0,1.0
1629794138.625,0,0,38.812032174400564,0.0,1.0
1629794139.09375,0,0,0.0,0.0,1.0
1629794139.5625,0,0,24.432080350674834,0.0,1.0
1629794140.03125,0,0,0.0,0.0,1.0
1629794140.5,0,0,34.891936252036714,0.0,1.0
1629794140.96875,0,0,0.0,0.0,1.0
1629794141.4375,0,0,28.656035553428485,0.0,1.0
1629794141.90625,0,0,-5.183700533712798,0.0,1.0
1629794142.375,0,0,29.87682331759175,0.0,1.0
1629794142.84375,0,0,0.0,0.0,1.0
1629794143.3125,0,0,29.80323964280672,0.0,1.0
1629794143.78125,0,0,13.759580853508474,0.0,1.0
1629794144.25,0,0,0.0,0.0,1.0
1629794144.71875,0,0,32.3073941008742,0.0,1.0
1629794145.1875,0,0,0.0,0.0,1.0
1629794145.65625,0,0,32.327440029117554,0.0,1.0
1629794146.125,0,0,0.0,0.0,1.0
1629794146.59375,0,0,34.103071022412,0.0,1.0
1629794147.0625,0,0,0.0,0.0,1.0
1629794147.53125,0,0,55.12342522155183,0.0,1.0
1629794148.0,0,0,0.0,0.0,1.0
1629794148.46875,0,0,42.4902435248673,0.0,1.0
1629794148.9375,0,0,0.0,0.0,1.0
1629794149.40625,0,0,51.819447973782815,0.0,1.0
1629794149.875,0,0,0.0,0.0,1.0
1629794150.34375,0,0,0.0,0.0,1.0
1629794150.8125,0,0,55.24759959894764,0.0,1.0
1629794151.28125,0,0,0.0,0.0,1.0
1629794151.75,0,0,48.553777065895304,0.0,1.0
1629794152.21875,0,0,0.0,0.0,1.0
1629794152.6875,0,0,43.373707126925844,0.0,1.0
1629794153.15625,0,0,0.0,0.0,1.0
1629794153.625,0,0,274.7734130435812,0.0,1.0
1629794154.09375,0,0,-11.011081975008619,0.0,1.0
1629794154.5625,0,0,120.48699008058874,0.0,1.0
1629794155.03125,0,0,-2.0145073991710567,0.0,1.0
1629794155.5,0,0,96.50597031880909,0.0,1.0
1629794155.96875,0,0,0.0,0.0,1.0
1629794156.4375,0,0,0.0,0.0,1.0
1629794156.90625,0,0,26.448722837663446,0.0,1.0
1629794157.375,0,0,0.0,0.0,1.0
1629794157.84375,0,0,33.0935900723362,0.0,1.0
1629794158.3125,0,0,107.88738256493083,0.0,1.0
1629794158.78125,0,0,71.80988406953996,0.0,1.0
1629794159.25,0,0,18.81363126536596,0.0,1.0
1629794159.71875,0,0,42.188521647636,0.0,1.0
1629794160.1875,0,0,0.0,0.0,1.0
1629794160.65625,0,0,35.41318486547716,0.0,1.0
1629794161.125,0,0,-9.559486813254392,0.0,1.0
1629794161.59375,0,0,0.0,0.0,1.0
1629794162.0625,0,0,51.9580610304401,0.0,1.0
1629794162.53125,0,0,0.0,0.0,1.0
1629794163.0,0,0,22.866069660049,0.0,1.0
1629794163.46875,0,0,-22.839288713620885,0.0,1.0
1629794163.9375,0,0,20.84233869114839,0.0,1.0
1629794164.40625,0,0,0.0,0.0,1.0
1629794164.875,0,0,19.752583947245665,0.0,1.0
1629794165.34375,0,0,0.0,0.0,1.0
1629794165.8125,0,0,63.93304059982243,0.0,1.0
1629794166.28125,0,0,-11.274999285812418,0.0,1.0
1629794166.75,0,0,22.024429235315488,0.0,1.0
1629794167.21875,0,0,0.0,0.0,1.0
1629794167.6875,0,0,16.613105076612435,0.0,1.0
1629794168.15625,0,0,0.0,0.0,1.0
1629794168.625,0,0,21.238229499405797,0.0,1.0
1629794169.09375,0,0,0.0,0.0,1.0
1629794169.5625,0,0,0.0,0.0,1.0
1629794170.03125,0,0,21.476676089347425,0.0,1.0
1629794170.5,0,0,0.0,0.0,1.0
1629794170.96875,0,0,19.302887985031763,0.0,1.0
1629794171.4375,0,0,0.0,0.0,1.0
1629794171.90625,0,0,0.0,0.0,1.0
1629794172.375,0,0,22.1419203050782,0.0,1.0
1629794172.84375,0,0,21.382038813269823,0.0,1.0
1629794173.3125,0,0,0.0,0.0,1.0
1629794173.78125,0,0,0.0,0.0,1.0
1629794174.25,0,0,0.0,0.0,1.0
1629794174.71875,0,0,18.99390337303696,0.0,1.0
1629794175.1875,0,0,0.0,0.0,1.0
1629794175.65625,0,0,17.755315984800212,0.0,1.0
1629794176.125,0,0,0.0,0.0,1.0
1629794176.59375,0,0,0.0,0.0,1.0
1629794177.0625,0,0,17.648597285738322,0.0,1.0
1629794177.53125,0,0,0.0,0.0,1.0
1629794178.0,0,0,16.441962087738798,0.0,1.0
1629794178.46875,0,0,0.0,0.0,1.0
1629794178.9375,0,0,12.441326428558078,0.0,1.0
1629794179.40625,0,0,0.0,0.0,1.0
1629794179.875,0,0,20.001059977318047,0.0,1.0
1629794180.34375,0,0,0.0,0.0,1.0
1629794180.8125,0,0,0.0,0.0,1.0
1629794181.28125,0,0,17.46406381422604,0.0,1.0
1629794181.75,0,0,21.460535625412145,0.0,1.0
1629794182.21875,0,0,23.628187887605716,0.0,1.0
1629794182.6875,0,0,0.0,0.0,1.0
1629794183.15625,0,0,17.07409290385023,0.0,1.0
1629794183.625,0,0,0.0,0.0,1.0
1629794184.09375,0,0,19.27435625685398,0.0,1.0
1629794184.5625,0,0,0.0,0.0,1.0
1629794185.03125,0,0,16.118962148797674,0.0,1.0
1629794185.5,0,0,0.0,0.0,1.0
1629794185.96875,0,0,18.258831935062766,0.0,1.0
1629794186.4375,0,0,0.0,0.0,1.0
1629794186.90625,0,0,0.0,0.0,1.0
1629794187.375,0,0,16.068495044823454,0.0,1.0
1629794187.84375,0,0,0.0,0.0,1.0
1629794188.3125,0,0,18.038590865107935,0.0,1.0
1629794188.78125,0,0,0.0,0.0,1.0
1629794189.25,0,0,13.550801675947008,0.0,1.0
1629794189.71875,0,0,0.0,0.0,1.0
1629794190.1875,0,0,17.528799577975008,0.0,1.0
1629794190.65625,0,0,0.0,0.0,1.0
1629794191.125,0,0,15.66969392533113,0.0,1.0
1629794191.59375,0,0,0.0,0.0,1.0
1629794192.0625,0,0,15.265583702419347,0.0,1.0
1629794192.53125,0,0,0.0,0.0,1.0
1629794193.0,0,0,14.133528855358565,0.0,1.0
1629794193.46875,0,0,0.0,0.0,1.0
1629794193.9375,0,0,13.867158393280013,0.0,1.0
1629794194.40625,0,0,13.022495397693291,0.0,1.0
1629794194.875,0,0,0.0,0.0,1.0
1629794195.34375,0,0,14.206632799923,0.0,1.0
1629794195.8125,0,0,0.0,0.0,1.0
1629794196.28125,0,0,12.574455094533409,0.0,1.0
1629794196.75,0,0,0.0,0.0,1.0
1629794197.21875,0,0,12.60492320571696,0.0,1.0
1629794197.6875,0,0,0.0,0.0,1.0
1629794198.15625,0,0,13.237221998722308,0.0,1.0
1629794198.625,0,0,0.0,0.0,1.0
1629794199.09375,0,0,13.856471148423168,0.0,1.0
1629794199.5625,0,0,0.0,0.0,1.0
1629794200.03125,0,0,14.191562701172963,0.0,1.0
1629794200.5,0,0,0.0,0.0,1.0
1629794200.96875,0,0,14.789367725912806,0.0,1.0
1629794201.4375,0,0,0.0,0.0,1.0
1629794201.90625,0,0,8.886310164883076,0.0,1.0
1629794202.375,0,0,5.9418365432360005,0.0,1.0
1629794202.84375,0,0,0.0,0.0,1.0
1629794203.3125,0,0,12.948970638860157,0.0,1.0
1629794203.78125,0,0,0.0,0.0,1.0
1629794204.25,0,0,9.73903387290127,0.0,1.0
1629794204.71875,0,0,0.0,0.0,1.0
1629794205.1875,0,0,11.932615688092971,0.0,1.0
1629794205.65625,0,0,0.0,0.0,1.0
1629794206.125,0,0,13.331275292250506,0.0,1.0
1629794206.59375,0,0,0.0,0.0,1.0
1629794207.0625,0,0,12.358094827194554,0.0,1.0
1629794207.53125,0,0,11.852550628827514,0.0,1.0
1629794208.0,0,0,8.401514771110884,0.0,1.0
1629794208.46875,0,0,10.871652811143925,0.0,1.0
1629794208.9375,0,0,0.0,0.0,1.0
1629794209.40625,0,0,19.12781242022201,0.0,1.0
1629794209.875,0,0,0.0,0.0,1.0
1629794210.34375,0,0,8.983093725220337,0.0,1.0
1629794210.8125,0,0,-2.8123177166236517,0.0,1.0
1629794211.28125,0,0,63.347123109834605,0.0,1.0
1629794211.75,0,0,64.74606225027837,0.0,1.0
1629794212.21875,0,0,129.72404981237133,0.0,1.0
1629794212.6875,0,0,0.0,0.0,1.0
1629794213.15625,0,0,6.761527996070449,0.0,1.0
1629794213.625,0,0,0.0,0.0,1.0
1629794214.09375,0,0,15.131958433016669,0.0,1.0
1629794214.5625,0,0,18.148415343216303,0.0,1.0
1629794215.03125,0,0,14.247725488109298,0.0,1.0
1629794215.5,0,0,20.945876849718427,0.0,1.0
1629794215.96875,0,0,22.214003830685034,0.0,1.0
1629794216.4375,0,0,19.335288045863578,0.0,1.0
1629794216.90625,0,0,18.837040659087382,0.0,1.0
1629794217.375,0,0,17.593945431952495,0.0,1.0
1629794217.84375,0,0,0.0,0.0,1.0
1629794218.3125,0,0,24.184349571741247,0.0,1.0
1629794218.78125,0,0,0.0,0.0,1.0
1629794219.25,0,0,8.806044239801144,0.0,1.0
1629794219.71875,0,0,0.0,0.0,1.0
1629794220.1875,0,0,0.0,0.0,1.0
1629794220.65625,0,0,0.0,0.0,1.0
1629794221.125,0,0,27.434800522633207,0.0,1.0
1629794221.59375,0,0,0.0,0.0,1.0
1629794222.0625,0,0,44.81768333928792,0.0,1.0
1629794222.53125,0,0,51.283904611251536,0.0,1.0
1629794223.0,0,0,49.17824619173043,0.0,1.0
1629794223.46875,0,0,0.0,0.0,1.0
1629794223.9375,0,0,12.167214300249379,0.0,1.0
1629794224.40625,0,0,8.460005580514267,0.0,1.0
1629794224.875,0,0,13.253506791344883,0.0,1.0
1629794225.34375,0,0,18.518111565569384,0.0,1.0
1629794225.8125,0,0,5.157390407201391,0.0,1.0
1629794226.28125,0,0,0.0,0.0,1.0
1629794226.75,0,0,20.86542345850724,0.0,1.0
1629794227.21875,0,0,11.511040296019068,0.0,1.0
1629794227.6875,0,0,0.0,0.0,1.0
1629794228.15625,0,0,7.420287470579758,0.0,1.0
1629794228.625,0,0,0.0,0.0,1.0
1629794229.09375,0,0,6.888660944828017,0.0,1.0
1629794229.5625,0,0,0.0,0.0,1.0
1629794230.03125,0,0,7.264904905831004,0.0,1.0
1629794230.5,0,0,0.0,0.0,1.0
1629794230.96875,0,0,6.578669901722997,0.0,1.0
1629794231.4375,0,0,6.979043149036105,0.0,1.0
1629794231.90625,0,0,44.04474347732151,0.0,1.0
1629794232.375,0,0,-30.84670559227705,0.0,1.0
1629794232.84375,0,0,18.003536781689057,0.0,1.0
1629794233.3125,0,0,18.392574607380336,0.0,1.0
1629794233.78125,0,0,0.0,0.0,1.0
1629794234.25,0,0,10.044714970755237,0.0,1.0
1629794234.71875,0,0,0.0,0.0,1.0
1629794235.1875,0,0,19.8696281925373,0.0,1.0
1629794235.65625,0,0,0.0,0.0,1.0
1629794236.125,0,0,22.269602261902765,0.0,1.0
1629794236.59375,0,0,0.0,0.0,1.0
1629794237.0625,0,0,0.0,0.0,1.0
1629794237.53125,0,0,0.0,0.0,1.0
1629794238.0,0,0,0.0,0.0,1.0
1629794238.46875,0,0,18.917742952617527,0.0,1.0
1629794238.9375,0,0,0.0,0.0,1.0
1629794239.40625,0,0,20.220055740071345,0.0,1.0
1629794239.875,0,0,0.0,0.0,1.0
1629794240.34375,0,0,17.46281752396109,0.0,1.0
1629794240.8125,0,0,0.0,0.0,1.0
1629794241.28125,0,0,24.19131401040362,0.0,1.0
1629794241.75,0,0,0.0,0.0,1.0
1629794242.21875,0,0,19.082753167808907,0.0,1.0
1629794242.6875,0,0,0.0,0.0,1.0
1629794243.15625,0,0,21.098621278196074,0.0,1.0
1629794243.625,0,0,0.0,0.0,1.0
1629794244.09375,0,0,21.739065478285664,0.0,1.0
1629794244.5625,0,0,21.703535114501122,0.0,1.0
1629794245.03125,0,0,0.0,0.0,1.0
1629794245.5,0,0,64.90199180545287,0.0,1.0
1629794245.96875,0,0,0.0,0.0,1.0
1629794246.4375,0,0,0.0,0.0,1.0
1629794246.90625,0,0,19.66980321267538,0.0,1.0
1629794247.375,0,0,12.965369684117848,0.0,1.0
1629794247.84375,0,0,0.0,0.0,1.0
1629794248.3125,0,0,10.806619093611706,0.0,1.0
1629794248.78125,0,0,13.110040952208674,0.0,1.0
1629794249.25,0,0,9.82084160305828,0.0,1.0
1629794249.71875,0,0,0.0,0.0,1.0
1629794250.1875,0,0,0.0,0.0,1.0
1629794250.65625,0,0,14.736158688466599,0.0,1.0
1629794251.125,0,0,0.0,0.0,1.0
1629794251.59375,0,0,14.187010301279068,0.0,1.0
1629794252.0625,0,0,0.0,0.0,1.0
1629794252.53125,0,0,15.714926525934693,0.0,1.0
1629794253.0,0,0,0.0,0.0,1.0
1629794253.46875,0,0,0.0,0.0,1.0
1629794253.9375,0,0,15.61052615875205,0.0,1.0
1629794254.40625,0,0,0.0,0.0,1.0
1629794254.875,0,0,12.184049926498751,0.0,1.0
1629794255.34375,0,0,0.0,0.0,1.0
1629794255.8125,0,0,14.392667471603726,0.0,1.0
1629794256.28125,0,0,0.0,0.0,1.0
1629794256.75,0,0,0.0,0.0,1.0
1629794257.21875,0,0,0.0,0.0,1.0
1629794257.6875,0,0,12.747811626991794,0.0,1.0
1629794258.15625,0,0,0.0,0.0,1.0
1629794258.625,0,0,0.0,0.0,1.0
1629794259.09375,0,0,16.140743636583746,0.0,1.0
1629794259.5625,0,0,0.0,0.0,1.0
1629794260.03125,0,0,13.282660302757893,0.0,1.0
1629794260.5,0,0,-2.76255289050819,0.0,1.0
1629794260.96875,0,0,13.808715365603348,0.0,1.0
1629794261.4375,0,0,0.0,0.0,1.0
1629794261.90625,0,0,13.691638449421804,0.0,1.0
1629794262.375,0,0,0.0,0.0,1.0
1629794262.84375,0,0,11.939874720283827,0.0,1.0
1629794263.3125,0,0,0.0,0.0,1.0
1629794263.78125,0,0,15.61513916573673,0.0,1.0
1629794264.25,0,0,0.0,0.0,1.0
1629794264.71875,0,0,0.0,0.0,1.0
1629794265.1875,0,0,0.0,0.0,1.0
1629794265.65625,0,0,0.0,0.0,1.0
1629794266.125,0,0,12.802758794834832,0.0,1.0
1629794266.59375,0,0,0.0,0.0,1.0
1629794267.0625,0,0,12.458803290820414,0.0,1.0
1629794267.53125,0,0,-5.089840340950811,0.0,1.0
1629794268.0,0,0,0.0,0.0,1.0
1629794268.46875,0,0,0.0,0.0,1.0
1629794268.9375,0,0,0.0,0.0,1.0
1629794269.40625,0,0,0.0,0.0,1.0
1629794269.875,0,0,33.42706211670701,0.0,1.0
1629794270.34375,0,0,38.28157752223298,0.0,1.0
1629794270.8125,0,0,5.279161894358866,0.0,1.0
1629794271.28125,0,0,27.60668223342935,0.0,1.0
1629794271.75,0,0,0.0,0.0,1.0
1629794272.21875,0,0,8.100720028709977,0.0,1.0
1629794272.6875,0,0,0.0,0.0,1.0
1629794273.15625,0,0,17.48380197828815,0.0,1.0
1629794273.625,0,0,0.0,0.0,1.0
1629794274.09375,0,0,19.093648914412782,0.0,1.0
1629794274.5625,0,0,0.0,0.0,1.0
1629794275.03125,0,0,9.091491173486787,0.0,1.0
1629794275.5,0,0,15.61743944966063,0.0,1.0
1629794275.96875,0,0,15.236458781023687,0.0,1.0
1629794276.4375,0,0,0.0,0.0,1.0
1629794276.90625,0,0,16.176301898174493,0.0,1.0
1629794277.375,0,0,0.0,0.0,1.0
1629794277.84375,0,0,0.0,0.0,1.0
1629794278.3125,0,0,19.253444408069814,0.0,1.0
1629794278.78125,0,0,0.0,0.0,1.0
1629794279.25,0,0,17.83422026529126,0.0,1.0
1629794279.71875,0,0,0.0,0.0,1.0
1629794280.1875,0,0,16.00809009649589,0.0,1.0
1629794280.65625,0,0,14.659064585755171,0.0,1.0
1629794281.125,0,0,0.0,0.0,1.0
1629794281.59375,0,0,15.077380763950254,0.0,1.0
1629794282.0625,0,0,0.0,0.0,1.0
1629794282.53125,0,0,13.463795792399473,0.0,1.0
1629794283.0,0,0,0.0,0.0,1.0
1629794283.46875,0,0,0.0,0.0,1.0
1629794283.9375,0,0,0.0,0.0,1.0
1629794284.40625,0,0,0.0,0.0,1.0
1629794284.875,0,0,17.352360171735153,0.0,1.0
1629794285.34375,0,0,0.0,0.0,1.0
1629794285.8125,0,0,15.675798896499577,0.0,1.0
1629794286.28125,0,0,0.0,0.0,1.0
1629794286.75,0,0,12.401010237347135,0.0,1.0
1629794287.21875,0,0,0.0,0.0,1.0
1629794287.6875,0,0,16.422734068533597,0.0,1.0
1629794288.15625,0,0,0.0,0.0,1.0
1629794288.625,0,0,0.0,0.0,1.0
1629794289.09375,0,0,12.702477606018961,0.0,1.0
1629794289.5625,0,0,0.0,0.0,1.0
1629794290.03125,0,0,15.158753878889883,0.0,1.0
1629794290.5,0,0,0.0,0.0,1.0
1629794290.96875,0,0,0.0,0.0,1.0
1629794291.4375,0,0,15.72476345365607,0.0,1.0
1629794291.90625,0,0,0.0,0.0,1.0
1629794292.375,0,0,16.875940520365184,0.0,1.0
1629794292.84375,0,0,0.0,0.0,1.0
1629794293.3125,0,0,13.828496013406467,0.0,1.0
1629794293.78125,0,0,0.0,0.0,1.0
1629794294.25,0,0,16.903344449364905,0.0,1.0
1629794294.71875,0,0,0.0,0.0,1.0
1629794295.1875,0,0,16.901397034831643,0.0,1.0
1629794295.65625,0,0,0.0,0.0,1.0
1629794296.125,0,0,0.0,0.0,1.0
1629794296.59375,0,0,79.75595670373775,0.0,1.0
1629794297.0625,0,0,13.723482864902962,0.0,1.0
1629794297.53125,0,0,44.928079045593535,0.0,1.0
1629794298.0,0,0,48.52495654982163,0.0,1.0
1629794298.46875,0,0,-53.44035941130252,0.0,1.0
1629794298.9375,0,0,52.98047559795779,0.0,1.0
1629794299.40625,0,0,23.225950399400325,0.0,1.0
1629794299.875,0,0,0.0,0.0,1.0
1629794300.34375,0,0,32.09936382002125,0.0,1.0
1629794300.8125,0,0,-17.82839890072143,0.0,1.0
1629794301.28125,0,0,42.792940157533685,0.0,1.0
1629794301.75,0,0,0.0,0.0,1.0
1629794302.21875,0,0,14.715922788978041,0.0,1.0
1629794302.6875,0,0,0.0,0.0,1.0
1629794303.15625,0,0,0.0,0.0,1.0
1629794303.625,0,0,0.0,0.0,1.0
1629794304.09375,0,0,17.563538785114694,0.0,1.0
1629794304.5625,0,0,13.927817122816146,0.0,1.0
1629794305.03125,0,0,0.0,0.0,1.0
1629794305.5,0,0,9.639090411356458,0.0,1.0
1629794305.96875,0,0,12.184874352858966,0.0,1.0
1629794306.4375,0,0,3.590360780720852,0.0,1.0
1629794306.90625,0,0,0.0,0.0,1.0
1629794307.375,0,0,15.171926674479174,0.0,1.0
1629794307.84375,0,0,0.0,0.0,1.0
1629794308.3125,0,0,20.937966824476973,0.0,1.0
1629794308.78125,0,0,22.258735443476656,0.0,1.0
1629794309.25,0,0,26.866532542663393,0.0,1.0
1629794309.71875,0,0,0.0,0.0,1.0
1629794310.1875,0,0,250.66312662659723,0.0,1.0
1629794310.65625,0,0,97.1612700764166,0.0,1.0
1629794311.125,0,0,82.21676210712214,0.0,1.0
1629794311.59375,0,0,0.0,0.0,1.0
1629794312.0625,0,0,0.0,0.0,1.0
1629794312.53125,0,0,39.02510687211291,0.0,1.0
1629794313.0,0,0,15.594616574876378,0.0,1.0
1629794313.46875,0,0,0.0,0.0,1.0
1629794313.9375,0,0,36.109722533089176,0.0,1.0
1629794314.40625,0,0,0.0,0.0,1.0
1629794314.875,0,0,13.19355968091146,0.0,1.0
1629794315.34375,0,0,0.0,0.0,1.0
1629794315.8125,0,0,16.274513219286746,0.0,1.0
1629794316.28125,0,0,-14.359964736105125,0.0,1.0
1629794316.75,0,0,15.499028894942189,0.0,1.0
1629794317.21875,0,0,0.0,0.0,1.0
1629794317.6875,0,0,13.926928505644696,0.0,1.0
1629794318.15625,0,0,1.3012113780724175,0.0,1.0
1629794318.625,0,0,11.607107781241218,0.0,1.0
1629794319.09375,0,0,0.0,0.0,1.0
1629794319.5625,0,0,7.8348176344882425,0.0,1.0
1629794320.03125,0,0,14.744577224390389,0.0,1.0
1629794320.5,0,0,0.0,0.0,1.0
1629794320.96875,0,0,18.53536970139412,0.0,1.0
1629794321.4375,0,0,18.464127863157554,0.0,1.0
1629794321.90625,0,0,0.0,0.0,1.0
1629794322.375,0,0,0.0,0.0,1.0
1629794322.84375,0,0,26.941777389954286,0.0,1.0
1629794323.3125,0,0,0.0,0.0,1.0
1629794323.78125,0,0,24.145762832097546,0.0,1.0
1629794324.25,0,0,0.0,0.0,1.0
1629794324.71875,0,0,16.10126979100908,0.0,1.0
1629794325.1875,0,0,0.0,0.0,1.0
1629794325.65625,0,0,40.46583480462809,0.0,1.0
1629794326.125,0,0,0.0,0.0,1.0
1629794326.59375,0,0,59.711188400235784,0.0,1.0
1629794327.0625,0,0,212.64289994388523,0.0,1.0
1629794327.53125,0,0,0.0,0.0,1.0
1629794328.0,0,0,65.18042891853102,0.0,1.0
1629794328.46875,0,0,44.96871188889554,0.0,1.0
1629794328.9375,0,0,-7.851690517955031,0.0,1.0
1629794329.40625,0,0,55.11698537006616,0.0,1.0
1629794329.875,0,0,286.06146943512226,0.0,1.0
1629794330.34375,0,0,-40.60002828265099,0.0,1.0
1629794330.8125,0,0,58.412901249600054,0.0,1.0
1629794331.28125,0,0,0.0,0.0,1.0
1629794331.75,0,0,16.826306981327434,0.0,1.0
1629794332.21875,0,0,0.0,0.0,1.0
1629794332.6875,0,0,19.920313014064213,0.0,1.0
1629794333.15625,0,0,0.0,0.0,1.0
1629794333.625,0,0,16.867198159275656,0.0,1.0
1629794334.09375,0,0,0.0,0.0,1.0
1629794334.5625,0,0,20.264940059850193,0.0,1.0
1629794335.03125,0,0,0.0,0.0,1.0
1629794335.5,0,0,16.003979430256273,0.0,1.0
1629794335.96875,0,0,2.4941662667257694,0.0,1.0
1629794336.4375,0,0,0.0,0.0,1.0
1629794336.90625,0,0,34.109620803804056,0.0,1.0
1629794337.375,0,0,-31.384756647345224,0.0,1.0
1629794337.84375,0,0,50.45187448062516,0.0,1.0
1629794338.3125,0,0,29.057330507871093,0.0,1.0
1629794338.78125,0,0,-2.1449741472894264,0.0,1.0
1629794339.25,0,0,0.0,0.0,1.0
1629794339.71875,0,0,44.67116126319417,0.0,1.0
1629794340.1875,0,0,0.0,0.0,1.0
1629794340.65625,0,0,0.0,0.0,1.0
1629794341.125,0,0,0.0,0.0,1.0
1629794341.59375,0,0,10.15037555212698,0.0,1.0
1629794342.0625,0,0,0.0,0.0,1.0
1629794342.53125,0,0,23.655173089383116,0.0,1.0
1629794343.0,0,0,0.0,0.0,1.0
1629794343.46875,0,0,4.410823043495184,0.0,1.0
1629794343.9375,0,0,12.52420096384136,0.0,1.0
1629794344.40625,0,0,0.0,0.0,1.0
1629794344.875,0,0,0.0,0.0,1.0
1629794345.34375,0,0,0.0,0.0,1.0
1629794345.8125,0,0,11.393931876511719,0.0,1.0
1629794346.28125,0,0,0.0,0.0,1.0
1629794346.75,0,0,10.951985936872525,0.0,1.0
1629794347.21875,0,0,0.0,0.0,1.0
1629794347.6875,0,0,0.0,0.0,1.0
1629794348.15625,0,0,14.447332255077496,0.0,1.0
1629794348.625,0,0,0.0,0.0,1.0
1629794349.09375,0,0,0.0,0.0,1.0
1629794349.5625,0,0,0.0,0.0,1.0
1629794350.03125,0,0,15.198082912549504,0.0,1.0
1629794350.5,0,0,0.0,0.0,1.0
1629794350.96875,0,0,12.131824200628056,0.0,1.0
1629794351.4375,0,0,0.0,0.0,1.0
1629794351.90625,0,0,17.11488584904814,0.0,1.0
1629794352.375,0,0,0.0,0.0,1.0
1629794352.84375,0,0,3.543501568465963,0.0,1.0
1629794353.3125,0,0,7.605058151316393,0.0,1.0
1629794353.78125,0,0,0.0,0.0,1.0
1629794354.25,0,0,9.858435387108257,0.0,1.0
1629794354.71875,0,0,0.0,0.0,1.0
1629794355.1875,0,0,0.0,0.0,1.0
1629794355.65625,0,0,18.481801614235383,0.0,1.0
1629794356.125,0,0,0.0,0.0,1.0
1629794356.59375,0,0,15.713860178857946,0.0,1.0
1629794357.0625,0,0,0.0,0.0,1.0
1629794357.53125,0,0,20.68538777060419,0.0,1.0
1629794358.0,0,0,0.0,0.0,1.0
1629794358.46875,0,0,15.051337551837847,0.0,1.0
1629794358.9375,0,0,0.0,0.0,1.0
1629794359.40625,0,0,16.758724183766926,0.0,1.0
1629794359.875,0,0,0.0,0.0,1.0
1629794360.34375,0,0,14.830357411710136,0.0,1.0
1629794360.8125,0,0,0.0,0.0,1.0
1629794361.28125,0,0,17.42140620945805,0.0,1.0
1629794361.75,0,0,0.0,0.0,1.0
1629794362.21875,0,0,11.533704778039118,0.0,1.0
1629794362.6875,0,0,0.0,0.0,1.0
1629794363.15625,0,0,0.0,0.0,1.0
1629794363.625,0,0,10.177113847705726,0.0,1.0
1629794364.09375,0,0,0.0,0.0,1.0
1629794364.5625,0,0,0.0,0.0,1.0
1629794365.03125,0,0,11.91902280344573,0.0,1.0
1629794365.5,0,0,0.0,0.0,1.0
1629794365.96875,0,0,0.0,0.0,1.0
1629794366.4375,0,0,0.0,0.0,1.0
1629794366.90625,0,0,16.9752426072809,0.0,1.0
1629794367.375,0,0,0.0,0.0,1.0
1629794367.84375,0,0,16.870565699389733,0.0,1.0
1629794368.3125,0,0,0.0,0.0,1.0
1629794368.78125,0,0,18.737337109898785,0.0,1.0
1629794369.25,0,0,0.0,0.0,1.0
1629794369.71875,0,0,15.531301865862885,0.0,1.0
1629794370.1875,0,0,0.0,0.0,1.0
1629794370.65625,0,0,11.511191062246008,0.0,1.0
1629794371.125,0,0,0.0,0.0,1.0
1629794371.59375,0,0,0.0,0.0,1.0
1629794372.0625,0,0,7.2835237148262255,0.0,1.0
1629794372.53125,0,0,0.0,0.0,1.0
1629794373.0,0,0,8.934812982936764,0.0,1.0
1629794373.46875,0,0,0.0,0.0,1.0
1629794373.9375,0,0,0.0,0.0,1.0
1629794374.40625,0,0,17.084564166642053,0.0,1.0
1629794374.875,0,0,0.0,0.0,1.0
1629794375.34375,0,0,13.167744409288975,0.0,1.0
1629794375.8125,0,0,0.0,0.0,1.0
1629794376.28125,0,0,19.930738687708974,0.0,1.0
1629794376.75,0,0,0.0,0.0,1.0
1629794377.21875,0,0,15.758797580887626,0.0,1.0
1629794377.6875,0,0,0.9851125258460532,0.0,1.0
1629794378.15625,0,0,16.36979403087551,0.0,1.0
1629794378.625,0,0,0.0,0.0,1.0
1629794379.09375,0,0,0.0,0.0,1.0
1629794379.5625,0,0,11.400340432015357,0.0,1.0
1629794380.03125,0,0,0.0,0.0,1.0
1629794380.5,0,0,12.144349012596189,0.0,1.0
1629794380.96875,0,0,0.0,0.0,1.0
1629794381.4375,0,0,9.785997146613472,0.0,1.0
1629794381.90625,0,0,0.0,0.0,1.0
1629794382.375,0,0,13.677384612280795,0.0,1.0
1629794382.84375,0,0,0.0,0.0,1.0
1629794383.3125,0,0,0.0,0.0,1.0
1629794383.78125,0,0,14.811717861327129,0.0,1.0
1629794384.25,0,0,0.0,0.0,1.0
1629794384.71875,0,0,13.4970730244885,0.0,1.0
1629794385.1875,0,0,0.0,0.0,1.0
1629794385.65625,0,0,13.534188072401175,0.0,1.0
1629794386.125,0,0,0.0,0.0,1.0
1629794386.59375,0,0,12.016550539282097,0.0,1.0
1629794387.0625,0,0,0.0,0.0,1.0
1629794387.53125,0,0,12.687072772766117,0.0,1.0
1629794388.0,0,0,0.0,0.0,1.0
1629794388.46875,0,0,10.32345315673552,0.0,1.0
1629794388.9375,0,0,0.0,0.0,1.0
1629794389.40625,0,0,9.935124800218059,0.0,1.0
1629794389.875,0,0,0.0,0.0,1.0
1629794390.34375,0,0,0.0,0.0,1.0
1629794390.8125,0,0,10.19988436851139,0.0,1.0
1629794391.28125,0,0,0.0,0.0,1.0
1629794391.75,0,0,16.455037374985015,0.0,1.0
1629794392.21875,0,0,0.0,0.0,1.0
1629794392.6875,0,0,6.47384662313695,0.0,1.0
1629794393.15625,0,0,0.0,0.0,1.0
1629794393.625,0,0,6.780218495735055,0.0,1.0
1629794394.09375,0,0,0.0,0.0,1.0
1629794394.5625,0,0,15.056654705847633,0.0,1.0
1629794395.03125,0,0,0.0,0.0,1.0
1629794395.5,0,0,0.0,0.0,1.0
1629794395.96875,0,0,30.7362092180989,0.0,1.0
1629794396.4375,0,0,4.149843280344537,0.0,1.0
1629794396.90625,0,0,9.077747775250641,0.0,1.0
1629794397.375,0,0,0.0,0.0,1.0
1629794397.84375,0,0,6.550525580342686,0.0,1.0
1629794398.3125,0,0,0.5912836113092484,0.0,1.0
1629794398.78125,0,0,5.428352550499767,0.0,1.0
1629794399.25,0,0,3.655144601552895,0.0,1.0
1629794399.71875,0,0,5.2494063277024745,0.0,1.0
1629794400.1875,0,0,0.0,0.0,1.0
1629794400.65625,0,0,7.867616291285052,0.0,1.0
1629794401.125,0,0,-0.370040641178496,0.0,1.0
1629794401.59375,0,0,0.0,0.0,1.0
1629794402.0625,0,0,9.172786521233038,0.0,1.0
1629794402.53125,0,0,0.0,0.0,1.0
1629794403.0,0,0,0.0,0.0,1.0
1629794403.46875,0,0,13.186202376826701,0.0,1.0
1629794403.9375,0,0,0.0,0.0,1.0
1629794404.40625,0,0,17.822434776752594,0.0,1.0
1629794404.875,0,0,0.0,0.0,1.0
1629794405.34375,0,0,17.02165643987411,0.0,1.0
1629794405.8125,0,0,0.0,0.0,1.0
1629794406.28125,0,0,0.0,0.0,1.0
1629794406.75,0,0,14.913535208814777,0.0,1.0
1629794407.21875,0,0,0.0,0.0,1.0
1629794407.6875,0,0,19.802677229222507,0.0,1.0
1629794408.15625,0,0,0.0,0.0,1.0
1629794408.625,0,0,18.133632682746452,0.0,1.0
1629794409.09375,0,0,0.0,0.0,1.0
1629794409.5625,0,0,0.0,0.0,1.0
1629794410.03125,0,0,19.013526676410986,0.0,1.0
1629794410.5,0,0,0.0,0.0,1.0
1629794410.96875,0,0,21.41804918628741,0.0,1.0
1629794411.4375,0,0,0.0,0.0,1.0
1629794411.90625,0,0,14.878290804401393,0.0,1.0
1629794412.375,0,0,0.0,0.0,1.0
1629794412.84375,0,0,0.0,0.0,1.0
1629794413.3125,0,0,0.0,0.0,1.0
1629794413.78125,0,0,0.0,0.0,1.0
1629794414.25,0,0,17.61125924166176,0.0,1.0
1629794414.71875,0,0,0.0,0.0,1.0
1629794415.1875,0,0,0.0,0.0,1.0
1629794415.65625,0,0,0.0,0.0,1.0
1629794416.125,0,0,0.0,0.0,1.0
1629794416.59375,0,0,13.157541320809658,0.0,1.0
1629794417.0625,0,0,0.0,0.0,1.0
1629794417.53125,0,0,11.375773829088882,0.0,1.0
1629794418.0,0,0,0.0,0.0,1.0
1629794418.46875,0,0,12.118092456223073,0.0,1.0
1629794418.9375,0,0,11.940046895330058,0.0,1.0
1629794419.40625,0,0,0.0,0.0,1.0
1629794419.875,0,0,18.606183086390534,0.0,1.0
1629794420.34375,0,0,0.0,0.0,1.0
1629794420.8125,0,0,15.308856613119763,0.0,1.0
1629794421.28125,0,0,0.0,0.0,1.0
1629794421.75,0,0,0.0,0.0,1.0
1629794422.21875,0,0,11.110001155476239,0.0,1.0
1629794422.6875,0,0,0.0,0.0,1.0
1629794423.15625,0,0,11.266703903340415,0.0,1.0
1629794423.625,0,0,0.0,0.0,1.0
1629794424.09375,0,0,10.495042532567382,0.0,1.0
1629794424.5625,0,0,0.0,0.0,1.0
1629794425.03125,0,0,0.0,0.0,1.0
1629794425.5,0,0,14.944205823459699,0.0,1.0
1629794425.96875,0,0,0.0,0.0,1.0
1629794426.4375,0,0,12.06572994966722,0.0,1.0
1629794426.90625,0,0,0.0,0.0,1.0
1629794427.375,0,0,14.186100605206487,0.0,1.0
1629794427.84375,0,0,0.0,0.0,1.0
1629794428.3125,0,0,0.0,0.0,1.0
1629794428.78125,0,0,10.98026123107435,0.0,1.0
1629794429.25,0,0,0.0,0.0,1.0
1629794429.71875,0,0,8.490205479547008,0.0,1.0
1629794430.1875,0,0,0.0,0.0,1.0
1629794430.65625,0,0,9.646308829988152,0.0,1.0
1629794431.125,0,0,0.0,0.0,1.0
1629794431.59375,0,0,0.0,0.0,1.0
1629794432.0625,0,0,10.891273661521224,0.0,1.0
1629794432.53125,0,0,0.0,0.0,1.0
1629794433.0,0,0,9.263565969041714,0.0,1.0
1629794433.46875,0,0,0.0,0.0,1.0
1629794433.9375,0,0,13.078281418634296,0.0,1.0
1629794434.40625,0,0,0.0,0.0,1.0
1629794434.875,0,0,0.0,0.0,1.0
1629794435.34375,0,0,20.987039589920197,0.0,1.0
1629794435.8125,0,0,0.0,0.0,1.0
1629794436.28125,0,0,12.431250633389013,0.0,1.0
1629794436.75,0,0,0.0,0.0,1.0
1629794437.21875,0,0,11.29350045986273,0.0,1.0
1629794437.6875,0,0,0.0,0.0,1.0
1629794438.15625,0,0,10.16902341533962,0.0,1.0
1629794438.625,0,0,0.0,0.0,1.0
1629794439.09375,0,0,0.0,0.0,1.0
1629794439.5625,0,0,1.7880782291438915,0.0,1.0
1629794440.03125,0,0,0.0,0.0,1.0
1629794440.5,0,0,8.94154031736051,0.0,1.0
1629794440.96875,0,0,0.0,0.0,1.0
1629794441.4375,0,0,0.0,0.0,1.0
1629794441.90625,0,0,0.0,0.0,1.0
1629794442.375,0,0,-1.8581109591565184,0.0,1.0
1629794442.84375,0,0,19.261227683037518,0.0,1.0
1629794443.3125,0,0,0.0,0.0,1.0
1629794443.78125,0,0,8.19655604022188,0.0,1.0
1629794444.25,0,0,7.119134736645531,0.0,1.0
1629794444.71875,0,0,0.0,0.0,1.0
1629794445.1875,0,0,0.0,0.0,1.0
1629794445.65625,0,0,6.521184174347274,0.0,1.0
1629794446.125,0,0,0.0,0.0,1.0
1629794446.59375,0,0,8.498946664513396,0.0,1.0
1629794447.0625,0,0,0.0,0.0,1.0
1629794447.53125,0,0,0.0,0.0,1.0
1629794448.0,0,0,8.67820923721898,0.0,1.0
1629794448.46875,0,0,0.0,0.0,1.0
1629794448.9375,0,0,8.732083726545556,0.0,1.0
1629794449.40625,0,0,0.0,0.0,1.0
1629794449.875,0,0,9.94141229817005,0.0,1.0
1629794450.34375,0,0,0.0,0.0,1.0
1629794450.8125,0,0,0.0,0.0,1.0
1629794451.28125,0,0,12.570936550408808,0.0,1.0
1629794451.75,0,0,0.0,0.0,1.0
1629794452.21875,0,0,30.151509286885943,0.0,1.0
1629794452.6875,0,0,0.0,0.0,1.0
1629794453.15625,0,0,0.0,0.0,1.0
1629794453.625,0,0,0.0,0.0,1.0
1629794454.09375,0,0,0.0,0.0,1.0
1629794454.5625,0,0,136.98545296504986,0.0,1.0
1629794455.03125,0,0,47.18580339228218,0.0,1.0
1629794455.5,0,0,3.939297836359723,0.0,1.0
1629794455.96875,0,0,33.11919769837638,0.0,2.0
1629794456.4375,0,0,60.57495434390067,0.0,2.0
1629794456.90625,0,0,86.1126979209992,0.0,2.0
1629794457.375,0,0,259.97515118035517,0.0,2.0
1629794457.84375,0,0,0.0,0.0,2.0
1629794458.3125,0,0,41.43654921913572,0.0,2.0
1629794458.78125,0,0,23.425520808229976,0.0,2.0
1629794459.25,0,0,0.0,0.0,2.0
1629794459.71875,0,0,22.692775761165528,0.0,2.0
1629794460.1875,0,0,0.0,0.0,2.0
1629794460.65625,0,0,7.773286106728916,0.0,2.0
1629794461.125,0,0,87.61139429734553,0.0,2.0
1629794461.59375,0,0,-70.46695515525977,0.0,2.0
1629794462.0625,0,0,39.14060420893467,0.0,2.0
1629794462.53125,0,0,119.45366250525673,0.0,2.0
1629794463.0,0,0,0.0,0.0,2.0
1629794463.46875,0,0,88.77935630571302,0.0,2.0
1629794463.9375,0,0,-4.284416929828396,0.0,2.0
1629794464.40625,0,0,-3.1544604315048765,0.0,2.0
1629794464.875,0,0,7.969621651248031,0.0,2.0
1629794465.34375,0,0,0.0,0.0,2.0
1629794465.8125,0,0,11.227286479335165,0.0,2.0
1629794466.28125,0,0,0.0,0.0,2.0
1629794466.75,0,0,11.24391432990842,0.0,2.0
1629794467.21875,0,0,-0.3178949379772479,0.0,2.0
1629794467.6875,0,0,23.027513621323756,0.0,2.0
1629794468.15625,0,0,5.322498151190914,0.0,2.0
1629794468.625,0,0,1.174456012180719,0.0,2.0
1629794469.09375,0,0,-1.886679806403421,0.0,2.0
1629794469.5625,0,0,16.070232588371326,0.0,2.0
1629794470.03125,0,0,9.608042132485684,0.0,2.0
1629794470.5,0,0,21.133118496650972,0.0,2.0
1629794470.96875,0,0,23.35699182857907,0.0,2.0
1629794471.4375,0,0,0.0,0.0,2.0
1629794471.90625,0,0,6.227354712834667,0.0,2.0
1629794472.375,0,0,49.16387544581469,0.0,2.0
1629794472.84375,0,0,6.227012533238721,0.0,2.0
1629794473.3125,0,0,5.189020519653787,0.0,2.0
1629794473.78125,0,0,0.0,0.0,2.0
1629794474.25,0,0,12.206650729108363,0.0,2.0
1629794474.71875,0,0,18.666697901048515,0.0,2.0
1629794475.1875,0,0,0.0,0.0,2.0
1629794475.65625,0,0,58.25121086193991,0.0,2.0
1629794476.125,0,0,74.19126415172373,0.0,2.0
1629794476.59375,0,0,0.0,0.0,2.0
1629794477.0625,0,0,10.848147879770094,0.0,2.0
1629794477.53125,0,0,0.0,0.0,2.0
1629794478.0,0,0,15.314144584893624,0.0,2.0
1629794478.46875,0,0,0.0,0.0,2.0
1629794478.9375,0,0,16.278448243394354,0.0,2.0
1629794479.40625,0,0,0.0,0.0,2.0
1629794479.875,0,0,15.761585204885074,0.0,2.0
1629794480.34375,0,0,15.142505187240605,0.0,2.0
1629794480.8125,0,0,0.0,0.0,2.0
1629794481.28125,0,0,0.0,0.0,2.0
1629794481.75,0,0,10.776015966132633,0.0,2.0
1629794482.21875,0,0,0.0,0.0,2.0
1629794482.6875,0,0,10.424928769241738,0.0,2.0
1629794483.15625,0,0,0.0,0.0,2.0
1629794483.625,0,0,10.442234475173533,0.0,2.0
1629794484.09375,0,0,0.0,0.0,2.0
1629794484.5625,0,0,0.0,0.0,2.0
1629794485.03125,0,0,10.986337194250622,0.0,2.0
1629794485.5,0,0,0.0,0.0,2.0
1629794485.96875,0,0,12.22321305731419,0.0,2.0
1629794486.4375,0,0,0.0,0.0,2.0
1629794486.90625,0,0,0.0,0.0,2.0
1629794487.375,0,0,13.886035417120228,0.0,2.0
1629794487.84375,0,0,0.0,0.0,2.0
1629794488.3125,0,0,15.823310324542334,0.0,2.0
1629794488.78125,0,0,0.0,0.0,2.0
1629794489.25,0,0,15.620484982379313,0.0,2.0
1629794489.71875,0,0,0.0,0.0,2.0
1629794490.1875,0,0,0.0,0.0,2.0
1629794490.65625,0,0,16.087217366870867,0.0,2.0
1629794491.125,0,0,0.0,0.0,2.0
1629794491.59375,0,0,16.634944262993827,0.0,2.0
1629794492.0625,0,0,0.0,0.0,2.0
1629794492.53125,0,0,0.0,0.0,2.0
1629794493.0,0,0,16.773380305171187,0.0,2.0
1629794493.46875,0,0,0.0,0.0,2.0
1629794493.9375,0,0,18.57596030146012,0.0,2.0
1629794494.40625,0,0,0.0,0.0,2.0
1629794494.875,0,0,0.0,0.0,2.0
1629794495.34375,0,0,19.284899308027303,0.0,2.0
1629794495.8125,0,0,0.0,0.0,2.0
1629794496.28125,0,0,19.172371804346298,0.0,2.0
1629794496.75,0,0,0.0,0.0,2.0
1629794497.21875,0,0,0.0,0.0,2.0
1629794497.6875,0,0,20.005475496807634,0.0,2.0
1629794498.15625,0,0,0.0,0.0,2.0
1629794498.625,0,0,20.979003095773347,0.0,2.0
1629794499.09375,0,0,0.0,0.0,2.0
1629794499.5625,0,0,20.450185645111095,0.0,2.0
1629794500.03125,0,0,0.0,0.0,2.0
1629794500.5,0,0,0.0,0.0,2.0
1629794500.96875,0,0,21.800957105234133,0.0,2.0
1629794501.4375,0,0,0.0,0.0,2.0
1629794501.90625,0,0,22.78609474378897,0.0,2.0
1629794502.375,0,0,0.0,0.0,2.0
1629794502.84375,0,0,0.0,0.0,2.0
1629794503.3125,0,0,19.667549511116313,0.0,2.0
1629794503.78125,0,0,0.0,0.0,2.0
1629794504.25,0,0,18.042901067970966,0.0,2.0
1629794504.71875,0,0,0.0,0.0,2.0
1629794505.1875,0,0,17.511016118492154,0.0,2.0
1629794505.65625,0,0,0.0,0.0,2.0
1629794506.125,0,0,0.0,0.0,2.0
1629794506.59375,0,0,17.255903303911342,0.0,2.0
1629794507.0625,0,0,0.0,0.0,2.0
1629794507.53125,0,0,15.026327129533268,0.0,2.0
1629794508.0,0,0,0.0,0.0,2.0
1629794508.46875,0,0,0.0,0.0,2.0
1629794508.9375,0,0,18.13767854843095,0.0,2.0
1629794509.40625,0,0,0.0,0.0,2.0
1629794509.875,0,0,18.094499878623477,0.0,2.0
1629794510.34375,0,0,0.0,0.0,2.0
1629794510.8125,0,0,15.982887483545829,0.0,2.0
1629794511.28125,0,0,15.94296380833531,0.0,2.0
1629794511.75,0,0,0.0,0.0,2.0
1629794512.21875,0,0,23.31407304945568,0.0,2.0
1629794512.6875,0,0,0.0,0.0,2.0
1629794513.15625,0,0,18.654091171966947,0.0,2.0
1629794513.625,0,0,0.0,0.0,2.0
1629794514.09375,0,0,0.0,0.0,2.0
1629794514.5625,0,0,0.0,0.0,2.0
1629794515.03125,0,0,0.0,0.0,2.0
1629794515.5,0,0,17.96288722081009,0.0,2.0
1629794515.96875,0,0,0.0,0.0,2.0
1629794516.4375,0,0,15.564053927085046,0.0,2.0
1629794516.90625,0,0,0.0,0.0,2.0
1629794517.375,0,0,0.0,0.0,2.0
1629794517.84375,0,0,15.692534429586454,0.0,2.0
1629794518.3125,0,0,0.0,0.0,2.0
1629794518.78125,0,0,21.130776806101515,0.0,2.0
1629794519.25,0,0,0.0,0.0,2.0
1629794519.71875,0,0,0.0,0.0,2.0
1629794520.1875,0,0,0.0,0.0,2.0
1629794520.65625,0,0,0.0,0.0,2.0
1629794521.125,0,0,17.62173710351314,0.0,2.0
1629794521.59375,0,0,0.0,0.0,2.0
1629794522.0625,0,0,19.212363802954883,0.0,2.0
1629794522.53125,0,0,0.0,0.0,2.0
1629794523.0,0,0,0.0,0.0,2.0
1629794523.46875,0,0,18.353051542192393,0.0,2.0
1629794523.9375,0,0,0.0,0.0,2.0
1629794524.40625,0,0,18.44918423960279,0.0,2.0
1629794524.875,0,0,0.0,0.0,2.0
1629794525.34375,0,0,0.0,0.0,2.0
1629794525.8125,0,0,18.48950882549819,0.0,2.0
1629794526.28125,0,0,0.0,0.0,2.0
1629794526.75,0,0,21.149400548627614,0.0,2.0
1629794527.21875,0,0,0.0,0.0,2.0
1629794527.6875,0,0,0.0,0.0,2.0
1629794528.15625,0,0,17.111347763521447,0.0,2.0
1629794528.625,0,0,0.0,0.0,2.0
1629794529.09375,0,0,0.0,0.0,2.0
1629794529.5625,0,0,19.16677179383979,0.0,2.0
1629794530.03125,0,0,0.0,0.0,2.0
1629794530.5,0,0,19.13469536038905,0.0,2.0
1629794530.96875,0,0,0.0,0.0,2.0
1629794531.4375,0,0,0.0,0.0,2.0
1629794531.90625,0,0,20.085121260187663,0.0,2.0
1629794532.375,0,0,0.0,0.0,2.0
1629794532.84375,0,0,73.02314667893502,0.0,2.0
1629794533.3125,0,0,0.0,0.0,2.0
1629794533.78125,0,0,19.367279889209033,0.0,2.0
1629794534.25,0,0,0.0,0.0,2.0
1629794534.71875,0,0,0.0,0.0,2.0
1629794535.1875,0,0,92.51841335913583,0.0,2.0
1629794535.65625,0,0,77.0770265944806,0.0,2.0
1629794536.125,0,0,10.084809164535478,0.0,2.0
1629794536.59375,0,0,-7.142040922381321,0.0,2.0
1629794537.0625,0,0,21.65549076217406,0.0,2.0
1629794537.53125,0,0,0.0,0.0,2.0
1629794538.0,0,0,5.983580774558551,0.0,2.0
1629794538.46875,0,0,24.21087681367898,0.0,2.0
1629794538.9375,0,0,79.9331466772552,0.0,2.0
1629794539.40625,0,0,0.0,0.0,2.0
1629794539.875,0,0,32.000994760617445,0.0,2.0
1629794540.34375,0,0,0.0,0.0,2.0
1629794540.8125,0,0,17.4666530374022,0.0,2.0
1629794541.28125,0,0,38.23537668480541,0.0,2.0
1629794541.75,0,0,0.0,0.0,2.0
1629794542.21875,0,0,0.0,0.0,2.0
1629794542.6875,0,0,8.579143943704581,0.0,2.0
1629794543.15625,0,0,0.0,0.0,2.0
1629794543.625,0,0,1.5605584511799417,0.0,2.0
1629794544.09375,0,0,7.624877063242514,0.0,2.0
1629794544.5625,0,0,0.0,0.0,2.0
1629794545.03125,0,0,5.153989968275156,0.0,2.0
1629794545.5,0,0,0.0,0.0,2.0
1629794545.96875,0,0,0.05695130598556582,0.0,2.0
1629794546.4375,0,0,13.028691047995897,0.0,2.0
1629794546.90625,0,0,12.521612164567443,0.0,2.0
1629794547.375,0,0,0.0,0.0,2.0
1629794547.84375,0,0,12.535264344976259,0.0,2.0
1629794548.3125,0,0,0.0,0.0,2.0
1629794548.78125,0,0,17.317210652970715,0.0,2.0
1629794549.25,0,0,0.0,0.0,2.0
1629794549.71875,0,0,0.0,0.0,2.0
1629794550.1875,0,0,20.82703927647547,0.0,2.0
1629794550.65625,0,0,0.0,0.0,2.0
1629794551.125,0,0,23.794615855010033,0.0,2.0
1629794551.59375,0,0,0.0,0.0,2.0
1629794552.0625,0,0,26.2484056038792,0.0,2.0
1629794552.53125,0,0,0.0,0.0,2.0
1629794553.0,0,0,0.0,0.0,2.0
1629794553.46875,0,0,22.12029839143156,0.0,2.0
1629794553.9375,0,0,0.0,0.0,2.0
1629794554.40625,0,0,30.15241873044715,0.0,2.0
1629794554.875,0,0,0.0,0.0,2.0
1629794555.34375,0,0,19.186289576154707,0.0,2.0
1629794555.8125,0,0,0.0,0.0,2.0
1629794556.28125,0,0,23.016724783467758,0.0,2.0
1629794556.75,0,0,0.0,0.0,2.0
1629794557.21875,0,0,33.16954304676557,0.0,2.0
1629794557.6875,0,0,0.0,0.0,2.0
1629794558.15625,0,0,0.0,0.0,2.0
1629794558.625,0,0,25.290391181648847,0.0,2.0
1629794559.09375,0,0,0.0,0.0,2.0
1629794559.5625,0,0,0.0,0.0,2.0
1629794560.03125,0,0,0.0,0.0,2.0
1629794560.5,0,0,0.0,0.0,2.0
1629794560.96875,0,0,18.968192187934537,0.0,2.0
1629794561.4375,0,0,0.0,0.0,2.0
1629794561.90625,0,0,0.0,0.0,2.0
1629794562.375,0,0,0.0,0.0,2.0
1629794562.84375,0,0,0.0,0.0,2.0
1629794563.3125,0,0,16.76716612728638,0.0,2.0
1629794563.78125,0,0,0.0,0.0,2.0
1629794564.25,0,0,17.056558170180413,0.0,2.0
1629794564.71875,0,0,6.216510263963589,0.0,2.0
1629794565.1875,0,0,0.0,0.0,2.0
1629794565.65625,0,0,13.128627956367957,0.0,2.0
1629794566.125,0,0,0.0,0.0,2.0
1629794566.59375,0,0,18.938798780580317,0.0,2.0
1629794567.0625,0,0,0.0,0.0,2.0
1629794567.53125,0,0,0.0,0.0,2.0
1629794568.0,0,0,23.013968947267752,0.0,2.0
1629794568.46875,0,0,0.0,0.0,2.0
1629794568.9375,0,0,17.486418948754935,0.0,2.0
1629794569.40625,0,0,0.0,0.0,2.0
1629794569.875,0,0,0.0,0.0,2.0
1629794570.34375,0,0,34.30535783139284,0.0,2.0
1629794570.8125,0,0,0.0,0.0,2.0
1629794571.28125,0,0,0.0,0.0,2.0
1629794571.75,0,0,39.30294552010254,0.0,2.0
1629794572.21875,0,0,75.32014845186485,0.0,2.0
1629794572.6875,0,0,24.253798811757346,0.0,2.0
1629794573.15625,0,0,43.30282635947022,0.0,2.0
1629794573.625,0,0,94.9960142108237,0.0,2.0
1629794574.09375,0,0,29.167610777463988,0.0,2.0
1629794574.5625,0,0,0.0,0.0,2.0
1629794575.03125,0,0,61.34913198247812,0.0,2.0
1629794575.5,0,0,63.94475986880916,0.0,2.0
1629794575.96875,0,0,57.264454120218154,0.0,2.0
1629794576.4375,0,0,0.0,0.0,2.0
1629794576.90625,0,0,-9.369967821535315,0.0,2.0
1629794577.375,0,0,0.0,0.0,2.0
1629794577.84375,0,0,96.00533394547868,0.0,2.0
1629794578.3125,0,0,-34.88135653191987,0.0,2.0
1629794578.78125,0,0,65.07501398170923,0.0,2.0
1629794579.25,0,0,71.3071478596196,0.0,2.0
1629794579.71875,0,0,15.382824947618058,0.0,2.0
1629794580.1875,0,0,114.10170692759081,0.0,2.0
1629794580.65625,0,0,161.27696419922952,0.0,2.0
1629794581.125,0,0,0.0,0.0,2.0
1629794581.59375,0,0,62.128935590697736,0.0,2.0
1629794582.0625,0,0,26.49733466830769,0.0,2.0
1629794582.53125,0,0,-5.673015602735547,0.0,2.0
1629794583.0,0,0,102.45054964870826,0.0,2.0
1629794583.46875,0,0,6.341436146052705,0.0,2.0
1629794583.9375,0,0,-1.324817540245527,0.0,2.0
1629794584.40625,0,0,78.77715481022841,0.0,2.0
1629794584.875,0,0,191.79396807842832,0.0,2.0
1629794585.34375,0,0,10.256213318951911,0.0,2.0
1629794585.8125,0,0,-20.252789571322936,0.0,2.0
1629794586.28125,0,0,114.02196329184059,0.0,2.0
1629794586.75,0,0,0.0,0.0,2.0
1629794587.21875,0,0,67.69889551901184,0.0,2.0
1629794587.6875,0,0,65.97052925959139,0.0,2.0
1629794588.15625,0,0,0.0,0.0,2.0
1629794588.625,0,0,90.71496466452335,0.0,2.0
1629794589.09375,0,0,0.0,0.0,2.0
1629794589.5625,0,0,13.673047849090478,0.0,2.0
1629794590.03125,0,0,10.661746501891038,0.0,2.0
1629794590.5,0,0,-2.048176339557483,0.0,2.0
1629794590.96875,0,0,48.50949826013264,0.0,2.0
1629794591.4375,0,0,39.09583696748097,0.0,2.0
1629794591.90625,0,0,20.076282392334228,0.0,2.0
1629794592.375,0,0,0.0,0.0,2.0
1629794592.84375,0,0,42.87264632974561,0.0,2.0
1629794593.3125,0,0,0.0,0.0,2.0
1629794593.78125,0,0,46.666376505011975,0.0,2.0
1629794594.25,0,0,0.0,0.0,2.0
1629794594.71875,0,0,-5.074220052342763,0.0,2.0
1629794595.1875,0,0,23.376856784262678,0.0,2.0
1629794595.65625,0,0,-12.753967524978247,0.0,2.0
1629794596.125,0,0,48.642520191429405,0.0,2.0
1629794596.59375,0,0,0.0,0.0,2.0
1629794597.0625,0,0,23.062824307161822,0.0,2.0
1629794597.53125,0,0,0.0,0.0,2.0
1629794598.0,0,0,11.770698490167964,0.0,2.0
1629794598.46875,0,0,0.0,0.0,2.0
1629794598.9375,0,0,24.890617541592114,0.0,2.0
1629794599.40625,0,0,0.0,0.0,2.0
1629794599.875,0,0,0.0,0.0,2.0
1629794600.34375,0,0,159.77899735402823,0.0,2.0
1629794600.8125,0,0,0.0,0.0,2.0
1629794601.28125,0,0,31.734304136973087,0.0,2.0
1629794601.75,0,0,25.251512768674484,0.0,2.0
1629794602.21875,0,0,42.116394469921886,0.0,2.0
1629794602.6875,0,0,13.011512745283751,0.0,2.0
1629794603.15625,0,0,0.0,0.0,2.0
1629794603.625,0,0,3.973580146447286,0.0,2.0
1629794604.09375,0,0,53.11945600085448,0.0,2.0
1629794604.5625,0,0,-14.962390702421613,0.0,2.0
1629794605.03125,0,0,6.685117493543437,0.0,2.0
1629794605.5,0,0,43.64364819293593,0.0,2.0
1629794605.96875,0,0,54.91029086685685,0.0,2.0
1629794606.4375,0,0,0.0,0.0,2.0
1629794606.90625,0,0,26.583847477568227,0.0,2.0
1629794607.375,0,0,0.0,0.0,2.0
1629794607.84375,0,0,6.128961194751021,0.0,2.0
1629794608.3125,0,0,0.0,0.0,2.0
1629794608.78125,0,0,16.458472323782683,0.0,2.0
1629794609.25,0,0,0.0,0.0,2.0
1629794609.71875,0,0,0.0,0.0,2.0
1629794610.1875,0,0,19.44126040181541,0.0,2.0
1629794610.65625,0,0,0.0,0.0,2.0
1629794611.125,0,0,13.922157896041417,0.0,2.0
1629794611.59375,0,0,0.0,0.0,2.0
1629794612.0625,0,0,18.577844863050654,0.0,2.0
1629794612.53125,0,0,0.0,0.0,2.0
1629794613.0,0,0,6.338157498457378,0.0,2.0
1629794613.46875,0,0,0.0,0.0,2.0
1629794613.9375,0,0,15.86435749598714,0.0,2.0
1629794614.40625,0,0,12.608147801433704,0.0,2.0
1629794614.875,0,0,0.0,0.0,2.0
1629794615.34375,0,0,38.59063900182979,0.0,2.0
1629794615.8125,0,0,-0.15840261408989512,0.0,2.0
1629794616.28125,0,0,30.27645940584371,0.0,2.0
1629794616.75,0,0,27.7605073687636,0.0,2.0
1629794617.21875,0,0,0.0,0.0,2.0
1629794617.6875,0,0,0.0,0.0,2.0
1629794618.15625,0,0,15.06021292062589,0.0,2.0
1629794618.625,0,0,0.0,0.0,2.0
1629794619.09375,0,0,6.121900816510512,0.0,2.0
1629794619.5625,0,0,0.0,0.0,2.0
1629794620.03125,0,0,7.022979463347421,0.0,2.0
1629794620.5,0,0,0.0,0.0,2.0
1629794620.96875,0,0,0.0,0.0,2.0
1629794621.4375,0,0,9.525659349408205,0.0,2.0
1629794621.90625,0,0,0.0,0.0,2.0
1629794622.375,0,0,12.18466307381232,0.0,2.0
1629794622.84375,0,0,0.0,0.0,2.0
1629794623.3125,0,0,0.0,0.0,2.0
1629794623.78125,0,0,12.418594783698527,0.0,2.0
1629794624.25,0,0,0.0,0.0,2.0
1629794624.71875,0,0,16.520917371411837,0.0,2.0
1629794625.1875,0,0,0.0,0.0,2.0
1629794625.65625,0,0,16.64393544999179,0.0,2.0
1629794626.125,0,0,0.0,0.0,2.0
1629794626.59375,0,0,0.0,0.0,2.0
1629794627.0625,0,0,15.837048358623848,0.0,2.0
1629794627.53125,0,0,0.0,0.0,2.0
1629794628.0,0,0,17.828395013031926,0.0,2.0
1629794628.46875,0,0,0.0,0.0,2.0
1629794628.9375,0,0,16.84443018862326,0.0,2.0
1629794629.40625,0,0,0.0,0.0,2.0
1629794629.875,0,0,0.0,0.0,2.0
1629794630.34375,0,0,16.08699596690303,0.0,2.0
1629794630.8125,0,0,0.0,0.0,2.0
1629794631.28125,0,0,19.536152743023518,0.0,2.0
1629794631.75,0,0,0.0,0.0,2.0
1629794632.21875,0,0,17.530179618267127,0.0,2.0
1629794632.6875,0,0,0.0,0.0,2.0
1629794633.15625,0,0,0.0,0.0,2.0
1629794633.625,0,0,15.239358867828424,0.0,2.0
1629794634.09375,0,0,0.0,0.0,2.0
1629794634.5625,0,0,17.749712216706204,0.0,2.0
1629794635.03125,0,0,0.0,0.0,2.0
1629794635.5,0,0,0.0,0.0,2.0
1629794635.96875,0,0,15.943628673120372,0.0,2.0
1629794636.4375,0,0,0.0,0.0,2.0
1629794636.90625,0,0,14.821631376643897,0.0,2.0
1629794637.375,0,0,0.0,0.0,2.0
1629794637.84375,0,0,13.406320535154876,0.0,2.0
1629794638.3125,0,0,0.0,0.0,2.0
1629794638.78125,0,0,0.0,0.0,2.0
1629794639.25,0,0,12.756081074161331,0.0,2.0
1629794639.71875,0,0,0.0,0.0,2.0
1629794640.1875,0,0,12.56662680113774,0.0,2.0
1629794640.65625,0,0,0.0,0.0,2.0
1629794641.125,0,0,85.42209819918754,0.0,2.0
1629794641.59375,0,0,0.0,0.0,2.0
1629794642.0625,0,0,0.0,0.0,2.0
1629794642.53125,0,0,0.0,0.0,2.0
1629794643.0,0,0,242.38036456980365,0.0,2.0
1629794643.46875,0,0,-3.0803292232393713,0.0,2.0
1629794643.9375,0,0,137.97599181645901,0.0,2.0
1629794644.40625,0,0,22.484619150745598,0.0,2.0
1629794644.875,0,0,0.0,0.0,3.0
1629794645.34375,0,0,18.32103658603261,0.0,3.0
1629794645.8125,0,0,0.0,0.0,3.0
1629794646.28125,0,0,24.921363956858702,0.0,3.0
1629794646.75,0,0,414.8124863379317,0.0,3.0
1629794647.21875,0,0,0.0,0.0,3.0
1629794647.6875,0,0,42.97289641359984,0.0,3.0
1629794648.15625,0,0,0.0,0.0,3.0
1629794648.625,0,0,6.764523416513609,0.0,3.0
1629794649.09375,0,0,0.0,0.0,3.0
1629794649.5625,0,0,5.255686315960398,0.0,3.0
1629794650.03125,0,0,0.0,0.0,3.0
1629794650.5,0,0,55.609218933859076,0.0,3.0
1629794650.96875,0,0,0.0,0.0,3.0
1629794651.4375,0,0,-4.926812031528604,0.0,3.0
1629794651.90625,0,0,15.227765307608234,0.0,3.0
1629794652.375,0,0,0.0,0.0,3.0
1629794652.84375,0,0,15.510495450389556,0.0,3.0
1629794653.3125,0,0,0.0,0.0,3.0
1629794653.78125,0,0,-12.498260694047241,0.0,3.0
1629794654.25,0,0,81.67982431471114,0.0,3.0
1629794654.71875,0,0,10.441793013312584,0.0,3.0
1629794655.1875,0,0,57.98310754069155,0.0,3.0
1629794655.65625,0,0,60.698387131895444,0.0,3.0
1629794656.125,0,0,0.0,0.0,3.0
1629794656.59375,0,0,-15.548083791691747,0.0,3.0
1629794657.0625,0,0,14.863742402792221,0.0,3.0
1629794657.53125,0,0,0.0,0.0,3.0
1629794658.0,0,0,6.529782036209503,0.0,3.0
1629794658.46875,0,0,0.0,0.0,3.0
1629794658.9375,0,0,2.9395687701702804,0.0,3.0
1629794659.40625,0,0,0.0,0.0,3.0
1629794659.875,0,0,7.806904952400871,0.0,3.0
1629794660.34375,0,0,-4.202024512389717,0.0,3.0
1629794660.8125,0,0,3.3014871068415044,0.0,3.0
1629794661.28125,0,0,3.2696550238767976,0.0,3.0
1629794661.75,0,0,9.780723149243935,0.0,3.0
1629794662.21875,0,0,0.0,0.0,3.0
1629794662.6875,0,0,4.477149510075679,0.0,3.0
1629794663.15625,0,0,138.6325310362249,0.0,3.0
1629794663.625,0,0,37.76259409537939,0.0,3.0
1629794664.09375,0,0,27.39061359113007,0.0,3.0
1629794664.5625,0,0,0.0,0.0,3.0
1629794665.03125,0,0,26.427614914663515,0.0,3.0
1629794665.5,0,0,0.0,0.0,3.0
1629794665.96875,0,0,5.212376226623465,0.0,3.0
1629794666.4375,0,0,-1.4152452825069073,0.0,3.0
1629794666.90625,0,0,12.505361730977185,0.0,3.0
1629794667.375,0,0,0.0,0.0,3.0
1629794667.84375,0,0,25.700086511103176,0.0,3.0
1629794668.3125,0,0,0.0,0.0,3.0
1629794668.78125,0,0,0.0,0.0,3.0
1629794669.25,0,0,0.0,0.0,3.0
1629794669.71875,0,0,29.21110654259152,0.0,3.0
1629794670.1875,0,0,0.0,0.0,3.0
1629794670.65625,0,0,8.472851548033546,0.0,3.0
1629794671.125,0,0,0.0,0.0,3.0
1629794671.59375,0,0,0.0,0.0,3.0
1629794672.0625,0,0,7.033423690183972,0.0,3.0
1629794672.53125,0,0,0.0,0.0,3.0
1629794673.0,0,0,8.404188934440361,0.0,3.0
1629794673.46875,0,0,0.0,0.0,3.0
1629794673.9375,0,0,16.77317151609284,0.0,3.0
1629794674.40625,0,0,0.0,0.0,3.0
1629794674.875,0,0,12.502467255778408,0.0,3.0
1629794675.34375,0,0,0.0,0.0,3.0
1629794675.8125,0,0,19.14377082065652,0.0,3.0
1629794676.28125,0,0,-0.5972715648453626,0.0,3.0
1629794676.75,0,0,10.272956630294333,0.0,3.0
1629794677.21875,0,0,0.0,0.0,3.0
1629794677.6875,0,0,20.428721831994807,0.0,3.0
1629794678.15625,0,0,-2.6716397039340896,0.0,3.0
1629794678.625,0,0,9.71475783920876,0.0,3.0
1629794679.09375,0,0,0.0,0.0,3.0
1629794679.5625,0,0,29.59615199378729,0.0,3.0
1629794680.03125,0,0,0.0,0.0,3.0
1629794680.5,0,0,13.975873368598624,0.0,3.0
1629794680.96875,0,0,0.0,0.0,3.0
1629794681.4375,0,0,7.785273048885415,0.0,3.0
1629794681.90625,0,0,0.0,0.0,3.0
1629794682.375,0,0,12.847698530237407,0.0,3.0
1629794682.84375,0,0,0.0,0.0,3.0
1629794683.3125,0,0,-7.8218370267753725,0.0,3.0
1629794683.78125,0,0,6.65764129500948,0.0,3.0
1629794684.25,0,0,0.0,0.0,3.0
1629794684.71875,0,0,10.36943640127953,0.0,3.0
1629794685.1875,0,0,0.0,0.0,3.0
1629794685.65625,0,0,14.48405177160467,0.0,3.0
1629794686.125,0,0,0.0,0.0,3.0
1629794686.59375,0,0,11.62672454174815,0.0,3.0
1629794687.0625,0,0,8.11206540347075,0.0,3.0
1629794687.53125,0,0,12.142264141088912,0.0,3.0
1629794688.0,0,0,0.0,0.0,3.0
1629794688.46875,0,0,15.583529591420742,0.0,3.0
1629794688.9375,0,0,6.989004977017317,0.0,3.0
1629794689.40625,0,0,11.652646398996254,0.0,3.0
1629794689.875,0,0,0.0,0.0,3.0
1629794690.34375,0,0,13.676926927908257,0.0,3.0
1629794690.8125,0,0,17.62065054972954,0.0,3.0
1629794691.28125,0,0,0.0,0.0,3.0
1629794691.75,0,0,10.990171027266582,0.0,3.0
1629794692.21875,0,0,9.046424186077763,0.0,3.0
1629794692.6875,0,0,24.343143412767482,0.0,3.0
1629794693.15625,0,0,0.0,0.0,3.0
1629794693.625,0,0,11.486241833718076,0.0,3.0
1629794694.09375,0,0,7.189776267185672,0.0,3.0
1629794694.5625,0,0,24.189744716885148,0.0,3.0
1629794695.03125,0,0,0.0,0.0,3.0
1629794695.5,0,0,14.394134477970109,0.0,3.0
1629794695.96875,0,0,0.0,0.0,3.0
1629794696.4375,0,0,23.9314873752357,0.0,3.0
1629794696.90625,0,0,0.0,0.0,3.0
1629794697.375,0,0,16.140734628043376,0.0,3.0
1629794697.84375,0,0,8.53425715611807,0.0,3.0
1629794698.3125,0,0,23.348065813599696,0.0,3.0
1629794698.78125,0,0,0.0,0.0,3.0
1629794699.25,0,0,15.491744686258643,0.0,3.0
1629794699.71875,0,0,0.0,0.0,3.0
1629794700.1875,0,0,25.03060444049821,0.0,3.0
1629794700.65625,0,0,45.8717963113485,0.0,3.0
1629794701.125,0,0,194.81633762720452,0.0,3.0
1629794701.59375,0,0,0.49076261325273346,0.0,3.0
1629794702.0625,0,0,-11.943198508495955,0.0,3.0
1629794702.53125,0,0,51.211489166163524,0.0,3.0
1629794703.0,0,0,81.458928718665,0.0,3.0
1629794703.46875,0,0,43.15423743796326,0.0,3.0
1629794703.9375,0,0,0.0,0.0,3.0
1629794704.40625,0,0,179.64836094524384,0.0,3.0
1629794704.875,0,0,0.0,0.0,3.0
1629794705.34375,0,0,-56.63622485514194,0.0,3.0
1629794705.8125,0,0,156.51809951504114,0.0,3.0
1629794706.28125,0,0,0.0,0.0,3.0
1629794706.75,0,0,41.66072021234667,0.0,3.0
1629794707.21875,0,0,0.0,0.0,3.0
1629794707.6875,0,0,17.192971140112114,0.0,3.0
1629794708.15625,0,0,18.557696914507382,0.0,3.0
1629794708.625,0,0,0.0,0.0,3.0
1629794709.09375,0,0,20.18870241079944,0.0,3.0
1629794709.5625,0,0,0.0,0.0,3.0
1629794710.03125,0,0,3.1275288874021148,0.0,3.0
1629794710.5,0,0,0.0,0.0,3.0
1629794710.96875,0,0,15.520974919664008,0.0,3.0
1629794711.4375,0,0,0.0,0.0,3.0
1629794711.90625,0,0,9.28309221402523,0.0,3.0
1629794712.375,0,0,0.0,0.0,3.0
1629794712.84375,0,0,7.754017521039513,0.0,3.0
1629794713.3125,0,0,-5.685902030088324,0.0,3.0
1629794713.78125,0,0,10.653009817515736,0.0,3.0
1629794714.25,0,0,12.185837050749969,0.0,3.0
1629794714.71875,0,0,-6.823672310191859,0.0,3.0
1629794715.1875,0,0,16.213960384280373,0.0,3.0
1629794715.65625,0,0,0.0,0.0,3.0
1629794716.125,0,0,52.338413694961694,0.0,3.0
1629794716.59375,0,0,-70.24717895724244,0.0,3.0
1629794717.0625,0,0,126.35923058934519,0.0,3.0
1629794717.53125,0,0,0.0,0.0,3.0
1629794718.0,0,0,27.380742273223806,0.0,3.0
1629794718.46875,0,0,7.894288100186317,0.0,3.0
1629794718.9375,0,0,12.92872938866335,0.0,3.0
1629794719.40625,0,0,38.91494410287852,0.0,3.0
1629794719.875,0,0,0.0,0.0,3.0
1629794720.34375,0,0,25.766539644661997,0.0,3.0
1629794720.8125,0,0,0.0,0.0,3.0
1629794721.28125,0,0,0.0,0.0,3.0
1629794721.75,0,0,0.0,0.0,3.0
1629794722.21875,0,0,13.453131102895338,0.0,3.0
1629794722.6875,0,0,1.8825512849532742,0.0,3.0
1629794723.15625,0,0,10.174294352231426,0.0,3.0
1629794723.625,0,0,7.552652940010979,0.0,3.0
1629794724.09375,0,0,17.228073666858243,0.0,3.0
1629794724.5625,0,0,8.925329353247085,0.0,3.0
1629794725.03125,0,0,16.12168347879339,0.0,3.0
1629794725.5,0,0,0.0,0.0,3.0
1629794725.96875,0,0,0.0,0.0,3.0
1629794726.4375,0,0,19.141593419779888,0.0,3.0
1629794726.90625,0,0,22.708103893438036,0.0,3.0
1629794727.375,0,0,0.0,0.0,3.0
1629794727.84375,0,0,0.0,0.0,3.0
1629794728.3125,0,0,20.186995818553076,0.0,3.0
1629794728.78125,0,0,0.0,0.0,3.0
1629794729.25,0,0,18.536045152089297,0.0,3.0
1629794729.71875,0,0,0.0,0.0,3.0
1629794730.1875,0,0,23.930978349097238,0.0,3.0
1629794730.65625,0,0,0.0,0.0,3.0
1629794731.125,0,0,15.462276959728905,0.0,3.0
1629794731.59375,0,0,3.4151430748382814,0.0,3.0
1629794732.0625,0,0,31.816529874769778,0.0,3.0
1629794732.53125,0,0,-25.285530731515045,0.0,3.0
1629794733.0,0,0,23.34916817297247,0.0,3.0
1629794733.46875,0,0,0.0,0.0,3.0
1629794733.9375,0,0,0.0,0.0,3.0
1629794734.40625,0,0,5.613102651809523,0.0,3.0
1629794734.875,0,0,0.0,0.0,3.0
1629794735.34375,0,0,15.840588517691357,0.0,3.0
1629794735.8125,0,0,0.0,0.0,3.0
1629794736.28125,0,0,21.86965618260848,0.0,3.0
1629794736.75,0,0,4.921430177427189,0.0,3.0
1629794737.21875,0,0,10.29001993278519,0.0,3.0
1629794737.6875,0,0,0.0,0.0,3.0
1629794738.15625,0,0,0.0,0.0,3.0
1629794738.625,0,0,15.753718433091894,0.0,3.0
1629794739.09375,0,0,0.0,0.0,3.0
1629794739.5625,0,0,11.087436397910043,0.0,3.0
1629794740.03125,0,0,6.868307301603673,0.0,3.0
1629794740.5,0,0,14.92738024852079,0.0,3.0
1629794740.96875,0,0,0.0,0.0,3.0
1629794741.4375,0,0,12.279654486673875,0.0,3.0
1629794741.90625,0,0,0.0,0.0,3.0
1629794742.375,0,0,19.816584930770397,0.0,3.0
1629794742.84375,0,0,0.0,0.0,3.0
1629794743.3125,0,0,11.239991406695728,0.0,3.0
1629794743.78125,0,0,0.0,0.0,3.0
1629794744.25,0,0,0.0,0.0,3.0
1629794744.71875,0,0,0.0,0.0,3.0
1629794745.1875,0,0,11.616857958121248,0.0,3.0
1629794745.65625,0,0,0.0,0.0,3.0
1629794746.125,0,0,-1.1888641594243587,0.0,3.0
1629794746.59375,0,0,13.816347717495184,0.0,3.0
1629794747.0625,0,0,0.0,0.0,3.0
1629794747.53125,0,0,13.069393249537903,0.0,3.0
1629794748.0,0,0,-12.678082484993377,0.0,3.0
1629794748.46875,0,0,15.421281453236526,0.0,3.0
1629794748.9375,0,0,0.0,0.0,3.0
1629794749.40625,0,0,17.020008841891297,0.0,3.0
1629794749.875,0,0,0.0,0.0,3.0
1629794750.34375,0,0,14.415097978143699,0.0,3.0
1629794750.8125,0,0,0.0,0.0,3.0
1629794751.28125,0,0,0.0,0.0,3.0
1629794751.75,0,0,4.81547293672076,0.0,3.0
1629794752.21875,0,0,0.0,0.0,3.0
1629794752.6875,0,0,19.04710585187263,0.0,3.0
1629794753.15625,0,0,0.0,0.0,3.0
1629794753.625,0,0,13.31462062556525,0.0,3.0
1629794754.09375,0,0,0.0,0.0,3.0
1629794754.5625,0,0,10.129428617971262,0.0,3.0
1629794755.03125,0,0,0.0,0.0,3.0
1629794755.5,0,0,16.876228260174496,0.0,3.0
1629794755.96875,0,0,0.0,0.0,3.0
1629794756.4375,0,0,8.966080223634124,0.0,3.0
1629794756.90625,0,0,3.7078323962399,0.0,3.0
1629794757.375,0,0,1.535030021175393,0.0,3.0
1629794757.84375,0,0,110.77473337848184,0.0,3.0
1629794758.3125,0,0,0.0,0.0,3.0
1629794758.78125,0,0,11.611410978171108,0.0,3.0
1629794759.25,0,0,51.07499628849095,0.0,3.0
1629794759.71875,0,0,26.72726408835047,0.0,3.0
1629794760.1875,0,0,8.450343395242424,0.0,3.0
1629794760.65625,0,0,47.99354012088266,0.0,3.0
1629794761.125,0,0,22.372394637149924,0.0,3.0
1629794761.59375,0,0,31.983374840529084,0.0,3.0
1629794762.0625,0,0,25.99961026005668,0.0,3.0
1629794762.53125,0,0,28.651077371571887,0.0,3.0
1629794763.0,0,0,86.67403503420763,0.0,3.0
1629794763.46875,0,0,50.36483238754607,0.0,3.0
1629794763.9375,0,0,49.832927881718916,0.0,3.0
1629794764.40625,0,0,20.370108224881346,0.0,3.0
1629794764.875,0,0,57.59147619229419,0.0,3.0
1629794765.34375,0,0,23.492319280428802,0.0,3.0
1629794765.8125,0,0,32.80591181378612,0.0,3.0
1629794766.28125,0,0,4.949847151136624,0.0,3.0
1629794766.75,0,0,39.2360061773417,0.0,3.0
1629794767.21875,0,0,56.28968768320277,0.0,3.0
1629794767.6875,0,0,27.811873282492773,0.0,3.0
1629794768.15625,0,0,32.61553613544393,0.0,3.0
1629794768.625,0,0,3.823137962433227,0.0,3.0
1629794769.09375,0,0,67.98902795315604,0.0,3.0
1629794769.5625,0,0,0.0,0.0,3.0
1629794770.03125,0,0,9.66864460812221,0.0,3.0
1629794770.5,0,0,0.0,0.0,3.0
1629794770.96875,0,0,9.110311636826992,0.0,3.0
1629794771.4375,0,0,0.0,0.0,3.0
1629794771.90625,0,0,0.0,0.0,3.0
1629794772.375,0,0,16.370556730782805,0.0,3.0
1629794772.84375,0,0,0.0,0.0,3.0
1629794773.3125,0,0,55.943747180441555,0.0,3.0
1629794773.78125,0,0,0.0,0.0,3.0
1629794774.25,0,0,18.62041357709519,0.0,3.0
1629794774.71875,0,0,0.0,0.0,3.0
1629794775.1875,0,0,38.88197513697706,0.0,3.0
1629794775.65625,0,0,0.0,0.0,3.0
1629794776.125,0,0,15.868790784939819,0.0,3.0
1629794776.59375,0,0,0.0,0.0,3.0
1629794777.0625,0,0,14.450701618612596,0.0,3.0
1629794777.53125,0,0,0.0,0.0,3.0
1629794778.0,0,0,16.481254919055512,0.0,3.0
1629794778.46875,0,0,0.0,0.0,3.0
1629794778.9375,0,0,7.544545066070577,0.0,3.0
1629794779.40625,0,0,0.0,0.0,3.0
1629794779.875,0,0,13.433786692484443,0.0,3.0
1629794780.34375,0,0,0.0,0.0,3.0
1629794780.8125,0,0,8.860974370243875,0.0,3.0
1629794781.28125,0,0,0.0,0.0,3.0
1629794781.75,0,0,14.17465513974929,0.0,3.0
1629794782.21875,0,0,0.0,0.0,3.0
1629794782.6875,0,0,10.742458185109326,0.0,3.0
1629794783.15625,0,0,0.0,0.0,3.0
1629794783.625,0,0,11.10981699622426,0.0,3.0
1629794784.09375,0,0,0.0,0.0,3.0
1629794784.5625,0,0,0.0,0.0,3.0
1629794785.03125,0,0,7.966649416313548,0.0,3.0
1629794785.5,0,0,0.0,0.0,3.0
1629794785.96875,0,0,11.574775702648864,0.0,3.0
1629794786.4375,0,0,0.0,0.0,3.0
1629794786.90625,0,0,12.338305639994774,0.0,3.0
1629794787.375,0,0,0.0,0.0,3.0
1629794787.84375,0,0,12.86334474824616,0.0,3.0
1629794788.3125,0,0,0.0,0.0,3.0
1629794788.78125,0,0,13.35715996738839,0.0,3.0
1629794789.25,0,0,0.0,0.0,3.0
1629794789.71875,0,0,15.962796873224383,0.0,3.0
1629794790.1875,0,0,0.0,0.0,3.0
1629794790.65625,0,0,12.61581674569149,0.0,3.0
1629794791.125,0,0,12.07795759497278,0.0,3.0
1629794791.59375,0,0,0.0,0.0,3.0
1629794792.0625,0,0,14.074118999422273,0.0,3.0
1629794792.53125,0,0,0.0,0.0,3.0
1629794793.0,0,0,13.228860146165163,0.0,3.0
1629794793.46875,0,0,0.0,0.0,3.0
1629794793.9375,0,0,14.01648920341471,0.0,3.0
1629794794.40625,0,0,0.0,0.0,3.0
1629794794.875,0,0,13.308026875232516,0.0,3.0
1629794795.34375,0,0,0.0,0.0,3.0
1629794795.8125,0,0,13.804244338462267,0.0,3.0
1629794796.28125,0,0,0.0,0.0,3.0
1629794796.75,0,0,10.459851402461812,0.0,3.0
1629794797.21875,0,0,8.96315271324481,0.0,3.0
1629794797.6875,0,0,0.0,0.0,3.0
1629794798.15625,0,0,11.806511363218737,0.0,3.0
1629794798.625,0,0,0.0,0.0,3.0
1629794799.09375,0,0,0.0,0.0,3.0
1629794799.5625,0,0,9.727757882335867,0.0,3.0
1629794800.03125,0,0,0.0,0.0,3.0
1629794800.5,0,0,0.0,0.0,3.0
1629794800.96875,0,0,12.597858107862685,0.0,3.0
1629794801.4375,0,0,0.0,0.0,3.0
1629794801.90625,0,0,7.774013986362486,0.0,3.0
1629794802.375,0,0,0.0,0.0,3.0
1629794802.84375,0,0,12.81488510435396,0.0,3.0
1629794803.3125,0,0,0.0,0.0,3.0
1629794803.78125,0,0,8.340823894560176,0.0,3.0
1629794804.25,0,0,0.0,0.0,3.0
1629794804.71875,0,0,11.047629605554057,0.0,3.0
1629794805.1875,0,0,0.0,0.0,3.0
1629794805.65625,0,0,7.854695618154123,0.0,3.0
1629794806.125,0,0,7.317913587976602,0.0,3.0
1629794806.59375,0,0,0.0,0.0,3.0
1629794807.0625,0,0,15.453306206072076,0.0,3.0
1629794807.53125,0,0,0.0,0.0,3.0
1629794808.0,0,0,11.525440073280762,0.0,3.0
1629794808.46875,0,0,0.0,0.0,3.0
1629794808.9375,0,0,21.803216575492012,0.0,3.0
1629794809.40625,0,0,0.0,0.0,3.0
1629794809.875,0,0,9.643186183247375,0.0,3.0
1629794810.34375,0,0,0.0,0.0,3.0
1629794810.8125,0,0,16.88030947646717,0.0,3.0
1629794811.28125,0,0,0.0,0.0,3.0
1629794811.75,0,0,17.033149331368325,0.0,3.0
1629794812.21875,0,0,0.0,0.0,3.0
1629794812.6875,0,0,7.886322182653916,0.0,3.0
1629794813.15625,0,0,0.0,0.0,3.0
1629794813.625,0,0,0.0,0.0,3.0
1629794814.09375,0,0,40.49030118722752,0.0,3.0
1629794814.5625,0,0,71.97888919627576,0.0,3.0
1629794815.03125,0,0,37.94526456018284,0.0,3.0
1629794815.5,0,0,22.618199230763178,0.0,3.0
1629794815.96875,0,0,45.63354400651233,0.0,3.0
1629794816.4375,0,0,35.11273866339294,0.0,3.0
1629794816.90625,0,0,71.85886615212733,0.0,3.0
1629794817.375,0,0,71.76604558149084,0.0,3.0
1629794817.84375,0,0,46.40504134886268,0.0,3.0
1629794818.3125,0,0,43.864558255341535,0.0,3.0
1629794818.78125,0,0,18.541077722995766,0.0,3.0
1629794819.25,0,0,19.00697899477768,0.0,3.0
1629794819.71875,0,0,7.941559189836615,0.0,3.0
1629794820.1875,0,0,41.606119701386675,0.0,3.0
1629794820.65625,0,0,13.890091419274974,0.0,3.0
1629794821.125,0,0,41.25382174585613,0.0,3.0
1629794821.59375,0,0,14.495038337682733,0.0,3.0
1629794822.0625,0,0,24.028659006499947,0.0,3.0
1629794822.53125,0,0,17.12999789806776,0.0,3.0
1629794823.0,0,0,20.74675695649996,0.0,3.0
1629794823.46875,0,0,28.094560045250358,0.0,3.0
1629794823.9375,0,0,37.957651128804265,0.0,3.0
1629794824.40625,0,0,34.884325951824565,0.0,3.0
1629794824.875,0,0,20.03758119054957,0.0,3.0
1629794825.34375,0,0,15.944281183563975,0.0,3.0
1629794825.8125,0,0,16.534594154468916,0.0,3.0
1629794826.28125,0,0,27.70890278209059,0.0,3.0
1629794826.75,0,0,11.73618760620595,0.0,3.0
1629794827.21875,0,0,24.966086488273763,0.0,3.0
1629794827.6875,0,0,13.510596536568647,0.0,3.0
1629794828.15625,0,0,40.91684330430674,0.0,3.0
1629794828.625,0,0,16.670527634086493,0.0,3.0
1629794829.09375,0,0,0.0,0.0,3.0
1629794829.5625,0,0,11.352026761304215,0.0,3.0
1629794830.03125,0,0,0.0,0.0,3.0
1629794830.5,0,0,0.0,0.0,3.0
1629794830.96875,0,0,0.0,0.0,3.0
1629794831.4375,0,0,0.0,0.0,3.0
1629794831.90625,0,0,10.635363364335605,0.0,3.0
1629794832.375,0,0,0.0,0.0,3.0
1629794832.84375,0,0,6.011904350666697,0.0,3.0
1629794833.3125,0,0,0.0,0.0,3.0
1629794833.78125,0,0,10.854787570470194,0.0,3.0
1629794834.25,0,0,0.0,0.0,3.0
1629794834.71875,0,0,0.0,0.0,3.0
1629794835.1875,0,0,9.350739549085095,0.0,3.0
1629794835.65625,0,0,0.0,0.0,3.0
1629794836.125,0,0,12.264683670792465,0.0,3.0
1629794836.59375,0,0,0.0,0.0,3.0
1629794837.0625,0,0,0.0,0.0,3.0
1629794837.53125,0,0,10.622941984887335,0.0,3.0
1629794838.0,0,0,0.0,0.0,3.0
1629794838.46875,0,0,10.878317270810365,0.0,3.0
1629794838.9375,0,0,0.0,0.0,3.0
1629794839.40625,0,0,0.0,0.0,3.0
1629794839.875,0,0,9.833388561580644,0.0,3.0
1629794840.34375,0,0,0.0,0.0,3.0
1629794840.8125,0,0,12.622612801342148,0.0,3.0
1629794841.28125,0,0,0.0,0.0,3.0
1629794841.75,0,0,0.0,0.0,3.0
1629794842.21875,0,0,-4.277719256204467,0.0,3.0
1629794842.6875,0,0,0.0,0.0,3.0
1629794843.15625,0,0,13.03209014543208,0.0,3.0
1629794843.625,0,0,0.0,0.0,3.0
1629794844.09375,0,0,13.26407825215799,0.0,3.0
1629794844.5625,0,0,38.95041095374126,0.0,3.0
1629794845.03125,0,0,-0.540061073785774,0.0,3.0
1629794845.5,0,0,114.25486574538614,0.0,3.0
1629794845.96875,0,0,0.0,0.0,3.0
1629794846.4375,0,0,0.0,0.0,3.0
1629794846.90625,0,0,17.874189779750118,0.0,3.0
1629794847.375,0,0,24.348479655403032,0.0,3.0
1629794847.84375,0,0,0.0,0.0,3.0
1629794848.3125,0,0,18.302118754710175,0.0,3.0
1629794848.78125,0,0,0.0,0.0,3.0
1629794849.25,0,0,14.948046836218868,0.0,3.0
1629794849.71875,0,0,0.0,0.0,3.0
1629794850.1875,0,0,12.330295280414434,0.0,3.0
1629794850.65625,0,0,0.0,0.0,3.0
1629794851.125,0,0,7.255282560092895,0.0,3.0
1629794851.59375,0,0,16.687642963699776,0.0,3.0
1629794852.0625,0,0,0.0,0.0,3.0
1629794852.53125,0,0,0.0,0.0,3.0
1629794853.0,0,0,0.0,0.0,3.0
1629794853.46875,0,0,10.51935489641413,0.0,3.0
1629794853.9375,0,0,19.014947744563965,0.0,3.0
1629794854.40625,0,0,0.0,0.0,3.0
1629794854.875,0,0,0.0,0.0,3.0
1629794855.34375,0,0,11.122297920190617,0.0,3.0
1629794855.8125,0,0,4.299767170704409,0.0,3.0
1629794856.28125,0,0,0.0,0.0,3.0
1629794856.75,0,0,0.0,0.0,3.0
1629794857.21875,0,0,0.0,0.0,3.0
1629794857.6875,0,0,17.457970266680686,0.0,3.0
1629794858.15625,0,0,0.0,0.0,3.0
1629794858.625,0,0,17.216852792507712,0.0,3.0
1629794859.09375,0,0,0.0,0.0,3.0
1629794859.5625,0,0,19.19196511654564,0.0,3.0
1629794860.03125,0,0,0.0,0.0,3.0
1629794860.5,0,0,0.0,0.0,3.0
1629794860.96875,0,0,33.21724511082296,0.0,3.0
1629794861.4375,0,0,0.0,0.0,3.0
1629794861.90625,0,0,18.87291742405102,0.0,3.0
1629794862.375,0,0,0.0,0.0,3.0
1629794862.84375,0,0,20.007777154659927,0.0,3.0
1629794863.3125,0,0,13.12081784245777,0.0,3.0
1629794863.78125,0,0,0.0,0.0,3.0
1629794864.25,0,0,19.874281358204403,0.0,3.0
1629794864.71875,0,0,11.348469133455778,0.0,3.0
1629794865.1875,0,0,20.325503150447673,0.0,3.0
1629794865.65625,0,0,0.0,0.0,3.0
1629794866.125,0,0,16.57094248840691,0.0,3.0
1629794866.59375,0,0,0.0,0.0,3.0
1629794867.0625,0,0,21.56152243586294,0.0,3.0
1629794867.53125,0,0,0.0,0.0,3.0
1629794868.0,0,0,0.0,0.0,3.0
1629794868.46875,0,0,14.307110986044588,0.0,3.0
1629794868.9375,0,0,0.0,0.0,3.0
